2142.0
2178.0
2147.0
2238.0
2238.0
2270.0
2315.0
2335.0
2343.0
2303.0
2339.0
2399.0
2446.0
2415.0
2499.0
2455.0
2499.0
2567.0
2523.0
2565.0
2559.0
2590.0
2695.0
2655.0
2690.0
2695.0
2795.0
2823.0
2783.0
2839.0
2907.0
2875.0
2894.0
2923.0
2958.0
2970.0
3063.0
3039.0
3082.0
3058.0
3179.0
3159.0
3207.0
3162.0
3235.0
3206.0
3263.0
3278.0
3367.0
3361.0
3403.0
3419.0
3431.0
3411.0
3399.0
3505.0
3438.0
3535.0
3490.0
3504.0
3539.0
3598.0
3559.0
3614.0
3606.0
3591.0
3658.0
3679.0
3611.0
3642.0
3682.0
3655.0
3675.0
3663.0
3759.0
3690.0
3694.0
3715.0
3687.0
3743.0
3766.0
3691.0
3699.0
3775.0
3759.0
3707.0
3702.0
3714.0
3794.0
3771.0
3795.0
3760.0
3795.0
3786.0
3723.0
3806.0
3707.0
3707.0
3683.0
3763.0
3679.0
3675.0
3755.0
3755.0
3726.0
3670.0
3662.0
3742.0
3651.0
3735.0
3678.0
3643.0
3711.0
3655.0
3711.0
3611.0
3623.0
3623.0
3635.0
3647.0
3583.0
3595.0
3635.0
3611.0
3582.0
3539.0
3539.0
3527.0
3590.0
3579.0
3526.0
3583.0
3559.0
3587.0
3478.0
3542.0
3480.0
3538.0
3427.0
3467.0
3487.0
3471.0
3503.0
3399.0
3407.0
3459.0
3387.0
3423.0
3398.0
3439.0
3454.0
3443.0
3363.0
3455.0
3367.0
3391.0
3390.0
3371.0
3319.0
3379.0
3383.0
3282.0
3294.0
3278.0
3279.0
3323.0
3272.0
3247.0
3303.0
3287.0
3319.0
3231.0
3327.0
3279.0
3215.0
3228.0
3202.0
3238.0
3234.0
3239.0
3194.0
3224.0
3143.0
3150.0
3151.0
3195.0
3139.0
3216.0
3123.0
3203.0
3122.0
3115.0
3198.0
3182.0
3171.0
3171.0
3175.0
3098.0
3071.0
3083.0
3146.0
3079.0
3047.0
3135.0
3082.0
3087.0
3111.0
3039.0
3031.0
3039.0
3027.0
3099.0
3102.0
3095.0
3083.0
3003.0
3034.0
3015.0
3054.0
2991.0
3039.0
2991.0
3035.0
3024.0
2935.0
2919.0
3018.0
2987.0
2943.0
2915.0
2967.0
2950.0
2978.0
2950.0
2947.0
2955.0
2875.0
2855.0
2914.0
2930.0
2912.0
2823.0
2839.0
2851.0
2822.0
2790.0
2799.0
2815.0
2795.0
2839.0
2842.0
2827.0
2790.0
2730.0
2802.0
2811.0
2766.0
2722.0
2703.0
2705.0
2687.0
2731.0
2646.0
2690.0
2670.0
2683.0
2623.0
2575.0
2603.0
2638.0
2631.0
2574.0
2554.0
2627.0
2580.0
2518.0
2563.0
2515.0
2494.0
2554.0
2475.0
2511.0
2518.0
2535.0
2527.0
2515.0
2403.0
2479.0
2463.0
2419.0
2490.0
2458.0
2487.0
2394.0
2458.0
2474.0
2382.0
2430.0
2431.0
2419.0
2402.0
2326.0
2375.0
2347.0
2363.0
2336.0
2362.0
2331.0
2393.0
2382.0
2415.0
2331.0
2391.0
2414.0
2338.0
2379.0
2335.0
2303.0
2327.0
2279.0
2295.0
2312.0
2367.0
2307.0
2347.0
2359.0
2354.0
2390.0
2398.0
2307.0
2307.0
2331.0
2323.0
2346.0
2310.0
2306.0
2375.0
2319.0
2331.0
2383.0
2355.0
2339.0
2383.0
2314.0
2382.0
2354.0
2351.0
2311.0
2395.0
2350.0
2338.0
2383.0
2371.0
2391.0
2310.0
2415.0
2343.0
2387.0
2319.0
2299.0
2299.0
2311.0
2303.0
2295.0
2299.0
2375.0
2386.0
2362.0
2366.0
2423.0
2338.0
2327.0
2323.0
2322.0
2371.0
2359.0
2331.0
2394.0
2355.0
2407.0
2343.0
2331.0
2399.0
2343.0
2358.0
2315.0
2414.0
2403.0
2343.0
2403.0
2403.0
2339.0
2318.0
2406.0
2326.0
2395.0
2402.0
2355.0
2299.0
2378.0
2363.0
2376.0
2359.0
2279.0
2351.0
2395.0
2343.0
2379.0
2288.0
2287.0
2319.0
2371.0
2308.0
2310.0
2347.0
2271.0
2343.0
2358.0
2247.0
2259.0
2250.0
2270.0
2280.0
2262.0
2238.0
2307.0
2263.0
2239.0
2251.0
2318.0
2287.0
2243.0
2243.0
2235.0
2287.0
2314.0
2224.0
2211.0
2271.0
2271.0
2247.0
2258.0
2283.0
2227.0
2254.0
2255.0
2210.0
2272.0
2202.0
2211.0
2203.0
2274.0
2185.0
2182.0
2238.0
2207.0
2223.0
2203.0
2227.0
2178.0
2147.0
2203.0
2150.0
2131.0
2130.0
2202.0
2138.0
2141.0
2175.0
2191.0
2150.0
2111.0
2198.0
2146.0
2151.0
2187.0
2122.0
2083.0
2175.0
2162.0
2131.0
2159.0
2127.0
2067.0
2115.0
2103.0
2122.0
2110.0
2046.0
2139.0
2082.0
2150.0
2095.0
2054.0
2066.0
2078.0
2030.0
2103.0
2007.0
2098.0
2015.0
2079.0
2007.0
2087.0
2000.0
2057.0
2030.0
1999.0
1995.0
2055.0
1987.0
2094.0
2026.0
2042.0
2015.0
2055.0
2059.0
1962.0
2006.0
2036.0
2039.0
2024.0
1971.0
2034.0
1971.0
1943.0
1967.0
2027.0
2006.0
1959.0
2007.0
1963.0
1959.0
1943.0
2031.0
2019.0
1935.0
1935.0
1939.0
2006.0
1942.0
1912.0
1987.0
1974.0
1895.0
1903.0
1982.0
1968.0
1995.0
1970.0
1962.0
1922.0
1922.0
1983.0
1971.0
1995.0
2006.0
1991.0
1879.0
1895.0
1918.0
1963.0
1970.0
1879.0
1975.0
1971.0
1930.0
1959.0
1871.0
1946.0
1911.0
1891.0
1906.0
1958.0
1874.0
1874.0
1963.0
1958.0
1954.0
1966.0
1923.0
1922.0
1878.0
1871.0
1923.0
1870.0
1878.0
1966.0
1890.0
1939.0
1959.0
1927.0
1906.0
1975.0
1918.0
1955.0
1894.0
1911.0
1867.0
1903.0
1919.0
1862.0
1886.0
1935.0
1859.0
1867.0
1934.0
1955.0
1870.0
1943.0
1922.0
1902.0
1887.0
1879.0
1926.0
1859.0
1860.0
1859.0
1859.0
1923.0
1855.0
1839.0
1890.0
1843.0
1891.0
1899.0
1935.0
1927.0
1895.0
1962.0
1859.0
1882.0
1894.0
1855.0
1916.0
1942.0
1956.0
1875.0
1875.0
1942.0
1911.0
1946.0
1859.0
1866.0
1894.0
1859.0
1959.0
1911.0
1947.0
1875.0
1959.0
1926.0
1927.0
1946.0
1974.0
1967.0
1967.0
1882.0
1867.0
1883.0
1866.0
1955.0
1895.0
1870.0
1971.0
1883.0
1875.0
1906.0
1927.0
1942.0
1919.0
1903.0
1970.0
1907.0
1967.0
1947.0
1975.0
1947.0
1939.0
1863.0
1923.0
1887.0
1922.0
1888.0
1927.0
1898.0
1943.0
1867.0
1923.0
1891.0
1950.0
1894.0
1878.0
1914.0
1971.0
1898.0
1923.0
1930.0
1887.0
1903.0
1911.0
1942.0
1846.0
1895.0
1911.0
1882.0
1898.0
1962.0
1887.0
1907.0
1866.0
1883.0
1951.0
1887.0
1934.0
1880.0
1886.0
1911.0
1871.0
1883.0
1847.0
1877.0
1846.0
1938.0
1903.0
1915.0
1915.0
1878.0
1902.0
1923.0
1850.0
1947.0
1910.0
1886.0
1903.0
1927.0
1943.0
1895.0
1847.0
1887.0
1923.0
1934.0
1863.0
1863.0
1834.0
1883.0
1918.0
1899.0
1858.0
1906.0
1939.0
1947.0
1852.0
1959.0
1894.0
1906.0
1835.0
1858.0
1879.0
1843.0
1866.0
1903.0
1836.0
1839.0
1879.0
1877.0
1891.0
1831.0
1914.0
1867.0
1843.0
1867.0
1910.0
1878.0
1839.0
1832.0
1838.0
1919.0
1851.0
1822.0
1919.0
1907.0
1870.0
1843.0
1843.0
1915.0
1874.0
1931.0
1854.0
1858.0
1914.0
1895.0
1883.0
1858.0
1911.0
1886.0
1951.0
1867.0
1867.0
1908.0
1979.0
1895.0
1958.0
2007.0
1999.0
2039.0
2003.0
2070.0
2007.0
2107.0
2031.0
2066.0
2123.0
2107.0
2167.0
2111.0
2226.0
2147.0
2243.0
2163.0
2211.0
2239.0
2286.0
2251.0
2339.0
2351.0
2395.0
2455.0
2427.0
2447.0
2442.0
2546.0
2494.0
2562.0
2531.0
2627.0
2583.0
2615.0
2687.0
2662.0
2751.0
2735.0
2798.0
2743.0
2871.0
2834.0
2835.0
2938.0
2963.0
2958.0
3018.0
2994.0
3074.0
3070.0
3102.0
3131.0
3095.0
3163.0
3155.0
3183.0
3155.0
3143.0
3174.0
3194.0
3307.0
3295.0
3338.0
3318.0
3287.0
3367.0
3338.0
3355.0
3351.0
3370.0
3375.0
3434.0
3415.0
3438.0
3463.0
3447.0
3483.0
3458.0
3507.0
3491.0
3475.0
3502.0
3578.0
3507.0
3583.0
3507.0
3507.0
3607.0
3559.0
3579.0
3610.0
3550.0
3527.0
3591.0
3529.0
3582.0
3583.0
3535.0
3550.0
3567.0
3600.0
3574.0
3522.0
3606.0
3528.0
3563.0
3535.0
3516.0
3522.0
3531.0
3486.0
3566.0
3543.0
3467.0
3450.0
3447.0
3519.0
3499.0
3479.0
3519.0
3510.0
3483.0
3506.0
3407.0
3446.0
3422.0
3435.0
3383.0
3471.0
3363.0
3390.0
3347.0
3331.0
3359.0
3391.0
3351.0
3287.0
3288.0
3271.0
3331.0
3305.0
3322.0
3228.0
3250.0
3303.0
3255.0
3218.0
3243.0
3271.0
3202.0
3226.0
3242.0
3246.0
3191.0
3147.0
3126.0
3191.0
3194.0
3175.0
3183.0
3107.0
3186.0
3075.0
3094.0
3169.0
3098.0
3091.0
3043.0
3031.0
3103.0
3019.0
3062.0
3067.0
3067.0
2991.0
3047.0
2983.0
2967.0
3006.0
2999.0
3031.0
3023.0
2995.0
2990.0
3038.0
2979.0
3011.0
2999.0
2995.0
2975.0
2911.0
2918.0
2906.0
2903.0
2874.0
2950.0
2931.0
2947.0
2887.0
2931.0
2915.0
2864.0
2946.0
2887.0
2918.0
2939.0
2839.0
2847.0
2875.0
2851.0
2875.0
2899.0
2903.0
2814.0
2807.0
2822.0
2866.0
2782.0
2796.0
2759.0
2851.0
2827.0
2840.0
2771.0
2827.0
2774.0
2782.0
2819.0
2827.0
2811.0
2815.0
2807.0
2815.0
2799.0
2767.0
2738.0
2787.0
2694.0
2766.0
2763.0
2706.0
2747.0
2726.0
2723.0
2646.0
2667.0
2711.0
2630.0
2699.0
2670.0
2643.0
2639.0
2622.0
2584.0
2642.0
2543.0
2526.0
2595.0
2606.0
2499.0
2498.0
2499.0
2523.0
2467.0
2555.0
2559.0
2463.0
2451.0
2515.0
2539.0
2475.0
2422.0
2480.0
2483.0
2459.0
2399.0
2447.0
2407.0
2455.0
2348.0
2355.0
2435.0
2358.0
2403.0
2351.0
2430.0
2419.0
2418.0
2335.0
2343.0
2370.0
2347.0
2303.0
2371.0
2347.0
2263.0
2350.0
2295.0
2347.0
2267.0
2354.0
2263.0
2371.0
2343.0
2363.0
2362.0
2359.0
2346.0
2319.0
2279.0
2271.0
2327.0
2375.0
2311.0
2371.0
2306.0
2342.0
2319.0
2363.0
2342.0
2286.0
2311.0
2287.0
2307.0
2291.0
2383.0
2291.0
2283.0
2303.0
2299.0
2378.0
2349.0
2355.0
2362.0
2279.0
2363.0
2311.0
2358.0
2374.0
2371.0
2298.0
2350.0
2334.0
2326.0
2307.0
2327.0
2331.0
2322.0
2371.0
2390.0
2395.0
2354.0
2307.0
2344.0
2387.0
2399.0
2327.0
2306.0
2322.0
2382.0
2398.0
2367.0
2335.0
2435.0
2431.0
2403.0
2347.0
2427.0
2375.0
2322.0
2426.0
2368.0
2331.0
2390.0
2406.0
2335.0
2327.0
2319.0
2374.0
2415.0
2387.0
2355.0
2347.0
2322.0
2435.0
2355.0
2423.0
2418.0
2382.0
2327.0
2422.0
2374.0
2319.0
2398.0
2323.0
2306.0
2374.0
2339.0
2383.0
2391.0
2299.0
2339.0
2371.0
2387.0
2350.0
2362.0
2323.0
2303.0
2325.0
2295.0
2323.0
2331.0
2354.0
2371.0
2271.0
2296.0
2355.0
2354.0
2243.0
2351.0
2350.0
2279.0
2314.0
2331.0
2283.0
2370.0
2303.0
2310.0
2279.0
2326.0
2322.0
2290.0
2326.0
2307.0
2207.0
2295.0
2207.0
2203.0
2302.0
2270.0
2219.0
2210.0
2199.0
2258.0
2275.0
2294.0
2235.0
2290.0
2187.0
2223.0
2266.0
2246.0
2211.0
2155.0
2239.0
2198.0
2215.0
2131.0
2203.0
2162.0
2154.0
2231.0
2143.0
2158.0
2186.0
2231.0
2195.0
2174.0
2138.0
2206.0
2115.0
2107.0
2192.0
2091.0
2126.0
2090.0
2151.0
2182.0
2163.0
2171.0
2067.0
2163.0
2139.0
2170.0
2103.0
2086.0
2163.0
2111.0
2058.0
2110.0
2034.0
2099.0
2134.0
2034.0
2119.0
2068.0
2099.0
2063.0
2063.0
2003.0
2022.0
2039.0
2062.0
2078.0
2003.0
2082.0
2075.0
2010.0
2050.0
1999.0
1990.0
2070.0
1995.0
1991.0
2047.0
2034.0
2043.0
2062.0
1959.0
1955.0
2023.0
2047.0
1974.0
1979.0
2047.0
1975.0
2011.0
1954.0
2023.0
2042.0
2022.0
1975.0
1980.0
1943.0
1943.0
1987.0
1950.0
2014.0
1923.0
1967.0
1975.0
1947.0
1998.0
1951.0
1961.0
2006.0
1935.0
2015.0
1943.0
1990.0
1918.0
1915.0
1942.0
1991.0
1934.0
1950.0
1950.0
1906.0
1923.0
1887.0
1899.0
1983.0
2002.0
1974.0
1899.0
1903.0
1943.0
1992.0
1974.0
1906.0
1958.0
1907.0
1930.0
1872.0
1962.0
1943.0
1951.0
1898.0
1866.0
1923.0
1926.0
1915.0
1866.0
1943.0
1963.0
1958.0
1931.0
1931.0
1875.0
1883.0
1854.0
1950.0
1879.0
1891.0
1843.0
1863.0
1931.0
1843.0
1895.0
1839.0
1947.0
1871.0
1846.0
1851.0
1926.0
1863.0
1938.0
1862.0
1922.0
1935.0
1867.0
1846.0
1930.0
1847.0
1911.0
1879.0
1899.0
1863.0
1932.0
1907.0
1886.0
1851.0
1936.0
1851.0
1903.0
1911.0
1843.0
1935.0
1871.0
1838.0
1934.0
1854.0
1919.0
1814.0
1811.0
1862.0
1831.0
1910.0
1827.0
1863.0
1899.0
1838.0
1879.0
1923.0
1855.0
1838.0
1843.0
1851.0
1843.0
1904.0
1814.0
1870.0
1827.0
1839.0
1874.0
1895.0
1814.0
1890.0
1886.0
1886.0
1854.0
1827.0
1826.0
1867.0
1882.0
1871.0
1856.0
1830.0
1838.0
1840.0
1920.0
1899.0
1831.0
1887.0
1863.0
1846.0
1911.0
1835.0
1835.0
1890.0
1855.0
1914.0
1922.0
1843.0
1903.0
1895.0
1851.0
1842.0
1839.0
1914.0
1835.0
1850.0
1918.0
1831.0
1818.0
1907.0
1875.0
1902.0
1871.0
1906.0
1934.0
1894.0
1896.0
1887.0
1911.0
1867.0
1822.0
1847.0
1834.0
1854.0
1898.0
1899.0
1867.0
1807.0
1915.0
1803.0
1859.0
1843.0
1886.0
1824.0
1903.0
1862.0
1830.0
1887.0
1831.0
1903.0
1835.0
1899.0
1867.0
1834.0
1811.0
1839.0
1807.0
1851.0
1827.0
1871.0
1819.0
1910.0
1883.0
1898.0
1918.0
1915.0
1862.0
1870.0
1866.0
1859.0
1942.0
1867.0
1950.0
1878.0
1948.0
1879.0
1986.0
1967.0
1987.0
1900.0
1955.0
2015.0
1931.0
2038.0
2058.0
2043.0
1995.0
2110.0
2075.0
2123.0
2111.0
2171.0
2178.0
2115.0
2211.0
2147.0
2190.0
2274.0
2258.0
2315.0
2342.0
2347.0
2390.0
2379.0
2423.0
2387.0
2403.0
2494.0
2542.0
2506.0
2558.0
2535.0
2550.0
2559.0
2667.0
2648.0
2722.0
2667.0
2775.0
2695.0
2766.0
2771.0
2859.0
2866.0
2859.0
2942.0
2947.0
2944.0
3015.0
3062.0
3079.0
3035.0
3026.0
3051.0
3151.0
3123.0
3139.0
3191.0
3175.0
3146.0
3259.0
3255.0
3247.0
3234.0
3298.0
3326.0
3358.0
3311.0
3323.0
3319.0
3387.0
3455.0
3459.0
3391.0
3450.0
3442.0
3474.0
3507.0
3451.0
3462.0
3434.0
3507.0
3523.0
3539.0
3539.0
3483.0
3487.0
3550.0
3523.0
3543.0
3555.0
3571.0
3522.0
3510.0
3579.0
3610.0
3555.0
3587.0
3498.0
3523.0
3563.0
3523.0
3534.0
3595.0
3543.0
3539.0
3502.0
3518.0
3566.0
3555.0
3515.0
3559.0
3579.0
3482.0
3482.0
3519.0
3538.0
3499.0
3459.0
3423.0
3519.0
3486.0
3463.0
3486.0
3466.0
3387.0
3442.0
3379.0
3427.0
3394.0
3367.0
3383.0
3340.0
3430.0
3350.0
3343.0
3387.0
3379.0
3283.0
3359.0
3326.0
3326.0
3334.0
3275.0
3271.0
3227.0
3266.0
3302.0
3207.0
3250.0
3195.0
3215.0
3166.0
3162.0
3146.0
3227.0
3231.0
3162.0
3207.0
3114.0
3095.0
3119.0
3167.0
3107.0
3075.0
3115.0
3107.0
3163.0
3059.0
3079.0
3048.0
3035.0
3087.0
3035.0
3011.0
3015.0
3079.0
2975.0
2987.0
2975.0
2975.0
3039.0
2959.0
3031.0
2952.0
2959.0
2991.0
3027.0
2934.0
3015.0
2979.0
2919.0
2974.0
2891.0
2951.0
2970.0
2927.0
2967.0
2863.0
2854.0
2862.0
2859.0
2855.0
2899.0
2851.0
2862.0
2862.0
2835.0
2922.0
2826.0
2895.0
2911.0
2907.0
2890.0
2790.0
2846.0
2863.0
2846.0
2840.0
2767.0
2798.0
2763.0
2838.0
2758.0
2798.0
2803.0
2847.0
2807.0
2842.0
2847.0
2827.0
2811.0
2819.0
2707.0
2810.0
2707.0
2718.0
2751.0
2671.0
2719.0
2674.0
2663.0
2711.0
2655.0
2698.0
2651.0
2695.0
2719.0
2635.0
2715.0
2603.0
2603.0
2590.0
2602.0
2583.0
2563.0
2594.0
2647.0
2567.0
2619.0
2599.0
2607.0
2506.0
2507.0
2499.0
2552.0
2507.0
2551.0
2490.0
2534.0
2454.0
2474.0
2519.0
2432.0
2406.0
2395.0
2395.0
2395.0
2459.0
2423.0
2455.0
2386.0
2422.0
2371.0
2339.0
2343.0
2383.0
2422.0
2355.0
2362.0
2419.0
2374.0
2303.0
2407.0
2295.0
2291.0
2297.0
2363.0
2283.0
2358.0
2352.0
2291.0
2350.0
2287.0
2379.0
2295.0
2291.0
2295.0
2374.0
2327.0
2278.0
2322.0
2342.0
2362.0
2355.0
2256.0
2255.0
2279.0
2355.0
2267.0
2283.0
2294.0
2294.0
2296.0
2359.0
2363.0
2275.0
2375.0
2378.0
2326.0
2326.0
2307.0
2378.0
2315.0
2294.0
2347.0
2299.0
2286.0
2387.0
2383.0
2379.0
2334.0
2367.0
2370.0
2314.0
2395.0
2406.0
2375.0
2427.0
2399.0
2362.0
2343.0
2383.0
2342.0
2363.0
2339.0
2430.0
2423.0
2338.0
2350.0
2380.0
2351.0
2410.0
2435.0
2351.0
2439.0
2454.0
2382.0
2398.0
2390.0
2459.0
2387.0
2387.0
2394.0
2383.0
2384.0
2406.0
2347.0
2375.0
2363.0
2454.0
2462.0
2459.0
2451.0
2398.0
2455.0
2382.0
2435.0
2427.0
2415.0
2375.0
2479.0
2379.0
2448.0
2446.0
2456.0
2363.0
2430.0
2339.0
2456.0
2358.0
2431.0
2447.0
2354.0
2351.0
2367.0
2451.0
2363.0
2414.0
2382.0
2375.0
2347.0
2431.0
2394.0
2431.0
2423.0
2330.0
2327.0
2310.0
2402.0
2346.0
2407.0
2398.0
2395.0
2326.0
2339.0
2336.0
2387.0
2383.0
2359.0
2394.0
2319.0
2307.0
2319.0
2358.0
2306.0
2294.0
2243.0
2275.0
2243.0
2275.0
2258.0
2256.0
2319.0
2238.0
2334.0
2307.0
2237.0
2247.0
2315.0
2231.0
2227.0
2259.0
2287.0
2254.0
2291.0
2226.0
2287.0
2211.0
2203.0
2235.0
2202.0
2254.0
2227.0
2239.0
2223.0
2283.0
2190.0
2202.0
2179.0
2230.0
2267.0
2175.0
2211.0
2239.0
2239.0
2171.0
2246.0
2218.0
2150.0
2222.0
2171.0
2142.0
2127.0
2195.0
2223.0
2214.0
2126.0
2123.0
2215.0
2174.0
2131.0
2170.0
2098.0
2190.0
2074.0
2090.0
2134.0
2147.0
2054.0
2059.0
2055.0
2079.0
2103.0
2051.0
2107.0
2083.0
2055.0
2123.0
2047.0
2050.0
2088.0
2046.0
2111.0
2015.0
2059.0
2030.0
2055.0
1999.0
2067.0
2083.0
2026.0
2107.0
2011.0
1999.0
2043.0
2015.0
2032.0
2032.0
2080.0
2027.0
2019.0
2087.0
1986.0
2066.0
2055.0
2079.0
1979.0
1963.0
1955.0
