2031.0
2022.0
2010.0
2034.0
2067.0
2035.0
2047.0
2034.0
1971.0
2010.0
2047.0
1982.0
1998.0
2034.0
1959.0
1999.0
2014.0
1966.0
1947.0
1954.0
2007.0
1955.0
1978.0
2018.0
1943.0
1998.0
1947.0
1983.0
1963.0
1927.0
1990.0
1975.0
1926.0
1991.0
1958.0
1910.0
1954.0
1947.0
1903.0
1908.0
1908.0
1962.0
1926.0
1959.0
1990.0
1983.0
1946.0
1975.0
1904.0
1907.0
1919.0
1930.0
1895.0
1923.0
1915.0
1971.0
1959.0
1898.0
1939.0
1898.0
1960.0
1946.0
1919.0
1914.0
1967.0
1927.0
1947.0
1890.0
1906.0
1931.0
1955.0
1891.0
1895.0
1902.0
1902.0
1875.0
1935.0
1887.0
1879.0
1870.0
1895.0
1950.0
1859.0
1871.0
1875.0
1931.0
1911.0
1927.0
1863.0
1942.0
1891.0
1930.0
1926.0
1922.0
1915.0
1906.0
1887.0
1955.0
1955.0
1907.0
1943.0
1983.0
1898.0
1982.0
1997.0
2002.0
1962.0
1987.0
2027.0
1975.0
1998.0
1998.0
2032.0
2047.0
2070.0
2072.0
2075.0
2095.0
2130.0
2186.0
2230.0
2259.0
2283.0
2227.0
2270.0
2299.0
2294.0
2379.0
2410.0
2415.0
2414.0
2410.0
2451.0
2543.0
2543.0
2519.0
2568.0
2567.0
2583.0
2704.0
2686.0
2750.0
2714.0
2711.0
2734.0
2823.0
2855.0
2835.0
2907.0
2935.0
2935.0
2911.0
2987.0
2947.0
3006.0
2975.0
3043.0
3075.0
3035.0
3079.0
3135.0
3154.0
3124.0
3203.0
3203.0
3222.0
3232.0
3231.0
3207.0
3215.0
3263.0
3259.0
3316.0
3274.0
3310.0
3318.0
3330.0
3388.0
3315.0
3363.0
3342.0
3375.0
3358.0
3351.0
3439.0
3370.0
3399.0
3403.0
3431.0
3395.0
3431.0
3407.0
3419.0
3399.0
3464.0
3459.0
3446.0
3447.0
3459.0
3443.0
3411.0
3443.0
3407.0
3414.0
3390.0
3406.0
3387.0
3395.0
3470.0
3463.0
3431.0
3383.0
3436.0
3375.0
3410.0
3366.0
3363.0
3427.0
3395.0
3411.0
3415.0
3403.0
3371.0
3382.0
3350.0
3331.0
3315.0
3343.0
3363.0
3299.0
3347.0
3287.0
3311.0
3351.0
3327.0
3279.0
3287.0
3259.0
3291.0
3235.0
3215.0
3290.0
3271.0
3203.0
3211.0
3254.0
3207.0
3189.0
3216.0
3159.0
3207.0
3139.0
3147.0
3211.0
3167.0
3143.0
3143.0
3158.0
3147.0
3150.0
3142.0
3075.0
3107.0
3138.0
3118.0
3079.0
3115.0
3059.0
3099.0
3055.0
3071.0
3023.0
3032.0
2999.0
3003.0
3027.0
3018.0
2979.0
3047.0
3054.0
2999.0
2975.0
3009.0
2946.0
3007.0
2967.0
2999.0
3006.0
2971.0
2975.0
2986.0
2907.0
2979.0
2934.0
2938.0
2950.0
2879.0
2886.0
2931.0
2927.0
2867.0
2871.0
2871.0
2898.0
2851.0
2896.0
2899.0
2887.0
2903.0
2894.0
2859.0
2831.0
2883.0
2863.0
2835.0
2827.0
2862.0
2851.0
2835.0
2823.0
2759.0
2762.0
2770.0
2771.0
2758.0
2743.0
2751.0
2734.0
2775.0
2743.0
2703.0
2694.0
2699.0
2715.0
2742.0
2703.0
2742.0
2675.0
2671.0
2682.0
2718.0
2663.0
2730.0
2647.0
2654.0
2634.0
2635.0
2611.0
2643.0
2595.0
2651.0
2615.0
2603.0
2595.0
2646.0
2570.0
2619.0
2619.0
2587.0
2595.0
2547.0
2554.0
2550.0
2588.0
2543.0
2598.0
2583.0
2522.0
2574.0
2531.0
2507.0
2527.0
2511.0
2531.0
2554.0
2503.0
2515.0
2518.0
2551.0
2535.0
2526.0
2519.0
2559.0
2487.0
2519.0
2487.0
2527.0
2487.0
2535.0
2503.0
2483.0
2458.0
2519.0
2455.0
2488.0
2514.0
2527.0
2463.0
2494.0
2503.0
2451.0
2498.0
2523.0
2503.0
2490.0
2490.0
2459.0
2503.0
2503.0
2455.0
2459.0
2451.0
2454.0
2479.0
2440.0
2463.0
2442.0
2522.0
2511.0
2499.0
2471.0
2435.0
2467.0
2519.0
2499.0
2487.0
2515.0
2491.0
2443.0
2476.0
2499.0
2430.0
2483.0
2431.0
2435.0
2499.0
2463.0
2423.0
2458.0
2471.0
2482.0
2466.0
2424.0
2476.0
2482.0
2487.0
2427.0
2434.0
2438.0
2463.0
2439.0
2447.0
2467.0
2474.0
2418.0
2446.0
2462.0
2419.0
2475.0
2467.0
2446.0
2451.0
2419.0
2431.0
2422.0
2410.0
2431.0
2462.0
2430.0
2419.0
2451.0
2459.0
2459.0
2447.0
2424.0
2455.0
2463.0
2406.0
2446.0
2379.0
2379.0
2399.0
2379.0
2411.0
2446.0
2439.0
2379.0
2438.0
2415.0
2383.0
2363.0
2423.0
2351.0
2390.0
2351.0
2374.0
2335.0
2363.0
2394.0
2355.0
2379.0
2359.0
2343.0
2322.0
2335.0
2343.0
2327.0
2363.0
2310.0
2315.0
2319.0
2307.0
2378.0
2335.0
2298.0
2291.0
2295.0
2370.0
2307.0
2291.0
2343.0
2331.0
2263.0
2295.0
2263.0
2271.0
2287.0
2315.0
2283.0
2326.0
2274.0
2287.0
2234.0
2230.0
2263.0
2222.0
2263.0
2279.0
2211.0
2230.0
2204.0
2198.0
2218.0
2191.0
2271.0
2259.0
2267.0
2195.0
2246.0
2224.0
2199.0
2247.0
2179.0
2231.0
2222.0
2219.0
2211.0
2151.0
2191.0
2211.0
2147.0
2230.0
2215.0
2139.0
2179.0
2183.0
2190.0
2162.0
2138.0
2135.0
2170.0
2123.0
2115.0
2184.0
2139.0
2119.0
2178.0
2119.0
2135.0
2119.0
2107.0
2150.0
2143.0
2123.0
2146.0
2158.0
2150.0
2159.0
2142.0
2123.0
2078.0
2135.0
2106.0
2074.0
2075.0
2055.0
2138.0
2079.0
2099.0
2123.0
2055.0
2090.0
2116.0
2054.0
2067.0
2070.0
2079.0
2070.0
2126.0
2042.0
2094.0
2087.0
2055.0
2055.0
2115.0
2063.0
2030.0
2078.0
2047.0
2019.0
2090.0
2071.0
2115.0
2030.0
2077.0
2083.0
2070.0
2034.0
2043.0
2034.0
2062.0
2027.0
2067.0
2047.0
2042.0
2002.0
2002.0
2011.0
2063.0
2035.0
2018.0
1991.0
2071.0
2022.0
1994.0
1998.0
1978.0
1994.0
1971.0
2027.0
2019.0
2051.0
1966.0
2006.0
1959.0
2018.0
1971.0
1973.0
2023.0
2031.0
2003.0
2031.0
2018.0
2007.0
1975.0
1939.0
2019.0
1936.0
2011.0
1943.0
1987.0
1978.0
2011.0
1947.0
2002.0
1976.0
1994.0
1946.0
2026.0
1939.0
1950.0
1931.0
1939.0
1942.0
1946.0
1999.0
1938.0
1979.0
2006.0
1938.0
1967.0
1931.0
1910.0
1914.0
1899.0
1902.0
1936.0
1934.0
1983.0
1912.0
1935.0
1975.0
1946.0
1998.0
1971.0
1939.0
1979.0
1918.0
1919.0
1988.0
1899.0
1954.0
1896.0
1923.0
1934.0
1911.0
1915.0
1991.0
1979.0
1999.0
2022.0
1959.0
1967.0
1990.0
1983.0
2024.0
2010.0
2003.0
2015.0
2059.0
2047.0
2091.0
2138.0
2114.0
2111.0
2148.0
2219.0
2183.0
2206.0
2231.0
2322.0
2275.0
2371.0
2351.0
2407.0
2387.0
2411.0
2451.0
2499.0
2471.0
2479.0
2515.0
2523.0
2606.0
2647.0
2618.0
2668.0
2683.0
2743.0
2754.0
2734.0
2806.0
2782.0
2863.0
2899.0
2878.0
2891.0
2911.0
2935.0
2983.0
3026.0
2990.0
2998.0
3087.0
3070.0
3068.0
3139.0
3155.0
3135.0
3179.0
3154.0
3167.0
3182.0
3251.0
3251.0
3267.0
3262.0
3279.0
3335.0
3323.0
3335.0
3314.0
3371.0
3374.0
3347.0
3371.0
3362.0
3408.0
3419.0
3379.0
3390.0
3451.0
3411.0
3427.0
3478.0
3418.0
3442.0
3487.0
3439.0
3458.0
3451.0
3482.0
3454.0
3454.0
3443.0
3475.0
3474.0
3530.0
3463.0
3443.0
3463.0
3515.0
3474.0
3495.0
3502.0
3442.0
3495.0
3478.0
3499.0
3478.0
3458.0
3435.0
3463.0
3414.0
3431.0
3478.0
3417.0
3407.0
3447.0
3454.0
3443.0
3442.0
3371.0
3430.0
3379.0
3419.0
3407.0
3379.0
3406.0
3423.0
3346.0
3327.0
3323.0
3331.0
3359.0
3374.0
3355.0
3374.0
3351.0
3327.0
3294.0
3339.0
3282.0
3306.0
3307.0
3263.0
3287.0
3315.0
3231.0
3220.0
3235.0
3251.0
3222.0
3206.0
3215.0
3179.0
3187.0
3218.0
3214.0
3175.0
3155.0
3171.0
3145.0
3198.0
3155.0
3162.0
3159.0
3095.0
3106.0
3107.0
3087.0
3071.0
3131.0
3095.0
3119.0
3062.0
3054.0
3083.0
3122.0
3111.0
3075.0
3063.0
3031.0
3047.0
3043.0
3051.0
3050.0
3043.0
2994.0
3018.0
3047.0
3023.0
2983.0
2991.0
3047.0
2994.0
2963.0
2959.0
2995.0
3023.0
2952.0
2999.0
2952.0
2934.0
2983.0
2982.0
2915.0
2995.0
2946.0
2947.0
2899.0
2887.0
2938.0
2907.0
2906.0
2939.0
2863.0
2890.0
2907.0
2911.0
2908.0
2911.0
2895.0
2899.0
2843.0
2859.0
2886.0
2874.0
2802.0
2872.0
2843.0
2863.0
2811.0
2783.0
2822.0
2779.0
2830.0
2783.0
2783.0
2775.0
2775.0
2775.0
2727.0
2791.0
2718.0
2719.0
2778.0
2739.0
2758.0
2735.0
2750.0
2682.0
2695.0
2723.0
2659.0
2727.0
2690.0
2679.0
2655.0
2691.0
2687.0
2659.0
2719.0
2630.0
2646.0
2646.0
2667.0
2687.0
2682.0
2674.0
2639.0
2619.0
2627.0
2630.0
2606.0
2671.0
2603.0
2575.0
2638.0
2570.0
2637.0
2583.0
2630.0
2559.0
2588.0
2599.0
2553.0
2602.0
2551.0
2551.0
2550.0
2591.0
2534.0
2587.0
2547.0
2526.0
2530.0
2590.0
2543.0
2595.0
2535.0
2515.0
2559.0
2515.0
2575.0
2506.0
2571.0
2550.0
2531.0
2574.0
2566.0
2535.0
2530.0
2507.0
2547.0
2539.0
2544.0
2502.0
2498.0
2488.0
2501.0
2494.0
2551.0
2499.0
2567.0
2507.0
2539.0
2566.0
2535.0
2519.0
2487.0
2547.0
2562.0
2527.0
2543.0
2534.0
2543.0
2502.0
2515.0
2527.0
2503.0
2552.0
2491.0
2475.0
2547.0
2503.0
2547.0
2523.0
2547.0
2538.0
2531.0
2531.0
2547.0
2542.0
2475.0
2474.0
2498.0
2523.0
2487.0
2515.0
2503.0
2482.0
2503.0
2495.0
2515.0
2510.0
2503.0
2458.0
2460.0
2527.0
2531.0
2487.0
2499.0
2443.0
2495.0
2447.0
2494.0
2507.0
2435.0
2435.0
2434.0
2431.0
2478.0
2435.0
2422.0
2459.0
2495.0
2423.0
2411.0
2410.0
2447.0
2450.0
2471.0
2438.0
2435.0
2414.0
2398.0
2412.0
2430.0
2455.0
2394.0
2403.0
2370.0
2447.0
2439.0
2402.0
2390.0
2419.0
2390.0
2391.0
2335.0
2418.0
2383.0
2419.0
2339.0
2415.0
2363.0
2335.0
2343.0
2387.0
2383.0
2343.0
2378.0
2343.0
2299.0
2343.0
2334.0
2346.0
2359.0
2306.0
2319.0
2339.0
2347.0
2351.0
2307.0
2290.0
2335.0
2315.0
2266.0
2267.0
2255.0
2242.0
2327.0
2255.0
2311.0
2283.0
2251.0
2255.0
2266.0
2310.0
2295.0
2222.0
2218.0
2231.0
2247.0
2202.0
2215.0
2227.0
2199.0
2255.0
2171.0
2223.0
2214.0
2187.0
2247.0
2239.0
2211.0
2170.0
2211.0
2218.0
2179.0
2171.0
2158.0
2159.0
2199.0
2190.0
2151.0
2211.0
2227.0
2179.0
2154.0
2159.0
2140.0
2171.0
2155.0
2118.0
2187.0
2179.0
2115.0
2179.0
2170.0
2186.0
2191.0
2111.0
2098.0
2123.0
2146.0
2119.0
2147.0
2103.0
2126.0
2119.0
2151.0
2103.0
2107.0
2082.0
2104.0
2083.0
2079.0
2067.0
2150.0
2155.0
2079.0
2066.0
2088.0
2090.0
2111.0
2142.0
2070.0
2115.0
2047.0
2111.0
2083.0
2062.0
2070.0
2106.0
2034.0
2111.0
2115.0
2071.0
2030.0
2066.0
2038.0
2059.0
2046.0
2114.0
2038.0
2067.0
2067.0
2083.0
2035.0
2039.0
2062.0
2063.0
2016.0
2066.0
2055.0
2014.0
2023.0
2083.0
2063.0
1995.0
1995.0
2070.0
2034.0
2067.0
2047.0
2054.0
1998.0
2055.0
2045.0
2074.0
2031.0
1974.0
2043.0
1991.0
2003.0
1975.0
2054.0
2063.0
2034.0
1987.0
2022.0
2032.0
2031.0
2027.0
2039.0
2035.0
1991.0
2047.0
1959.0
2006.0
2015.0
1979.0
1960.0
1978.0
1963.0
1962.0
1979.0
2042.0
1973.0
1983.0
1966.0
2019.0
2047.0
2007.0
1959.0
2046.0
1974.0
2042.0
1994.0
1991.0
1991.0
1994.0
2011.0
2023.0
1967.0
2018.0
2027.0
1986.0
1986.0
1975.0
1995.0
2002.0
1939.0
1986.0
1955.0
2003.0
1935.0
1960.0
1999.0
2011.0
1983.0
1950.0
1943.0
2022.0
1995.0
1954.0
2015.0
1975.0
2022.0
2035.0
2066.0
2056.0
2051.0
2091.0
2067.0
2042.0
2131.0
2139.0
2103.0
2119.0
2111.0
2159.0
2203.0
2179.0
2183.0
2210.0
2288.0
2307.0
2326.0
2275.0
2339.0
2318.0
2383.0
2420.0
2454.0
2439.0
2468.0
2494.0
2550.0
2526.0
2590.0
2575.0
2627.0
2602.0
2635.0
2684.0
2758.0
2754.0
2766.0
2787.0
2763.0
2823.0
2870.0
2930.0
2867.0
2915.0
2919.0
2935.0
2978.0
3006.0
3023.0
3095.0
3083.0
3079.0
3119.0
3103.0
3167.0
3171.0
3139.0
3210.0
3182.0
3242.0
3256.0
3239.0
3234.0
3251.0
3315.0
3283.0
3327.0
3294.0
3319.0
3359.0
3323.0
3383.0
3363.0
3375.0
3403.0
3395.0
3448.0
3463.0
3443.0
3447.0
3419.0
3451.0
3475.0
3435.0
3450.0
3467.0
3483.0
3490.0
3455.0
3459.0
3475.0
3519.0
3458.0
3518.0
3506.0
3487.0
3491.0
3502.0
3483.0
3483.0
3470.0
3494.0
3514.0
3483.0
3434.0
3475.0
3491.0
3479.0
3467.0
3491.0
3451.0
3447.0
3483.0
3440.0
3451.0
3440.0
3399.0
3447.0
3467.0
3426.0
3442.0
3371.0
3371.0
3367.0
3354.0
3414.0
3355.0
3350.0
3335.0
3359.0
3339.0
3323.0
3331.0
3304.0
3339.0
3291.0
3315.0
3303.0
3306.0
3307.0
3279.0
3254.0
3243.0
3267.0
3258.0
3247.0
3251.0
3219.0
3247.0
3239.0
3223.0
3211.0
3175.0
3240.0
3191.0
3199.0
3159.0
3194.0
3159.0
3171.0
3207.0
3130.0
3190.0
3111.0
3183.0
3130.0
3123.0
3159.0
3162.0
3115.0
3106.0
3127.0
3086.0
3067.0
3103.0
3071.0
3059.0
3091.0
3094.0
3115.0
3055.0
3062.0
3063.0
3087.0
3010.0
3031.0
3066.0
3063.0
3062.0
3015.0
3023.0
3035.0
3031.0
2979.0
3007.0
3015.0
2970.0
2955.0
3026.0
3003.0
3011.0
2987.0
2943.0
2991.0
2991.0
2963.0
2943.0
2942.0
2931.0
2922.0
2942.0
2926.0
2963.0
2895.0
2943.0
2926.0
2922.0
2882.0
2943.0
2880.0
2887.0
2903.0
2927.0
2923.0
2846.0
2871.0
2895.0
2818.0
2899.0
2850.0
2890.0
2835.0
2871.0
2803.0
2806.0
2850.0
2790.0
2803.0
2806.0
2847.0
2807.0
2823.0
2830.0
2750.0
2762.0
2743.0
2810.0
2751.0
2750.0
2771.0
2778.0
2771.0
2759.0
2710.0
2743.0
2767.0
2755.0
2730.0
2750.0
2671.0
2727.0
2706.0
2727.0
2715.0
2682.0
2695.0
2627.0
2695.0
2682.0
2679.0
2643.0
2630.0
2634.0
2614.0
2615.0
2630.0
2615.0
2603.0
2603.0
2599.0
2658.0
2591.0
2619.0
2583.0
2606.0
2647.0
2635.0
2595.0
2623.0
2626.0
2599.0
2615.0
2556.0
2612.0
2606.0
2568.0
2559.0
2558.0
2583.0
2615.0
2550.0
2559.0
2547.0
2546.0
2539.0
2559.0
2531.0
2547.0
2600.0
2606.0
2510.0
2579.0
2578.0
2587.0
2571.0
2562.0
2511.0
2575.0
2554.0
2510.0
2535.0
2542.0
2539.0
2554.0
2523.0
2539.0
2571.0
2551.0
2564.0
2524.0
2531.0
2526.0
2554.0
2498.0
2539.0
2539.0
2567.0
2498.0
2571.0
2479.0
2503.0
2559.0
2487.0
2494.0
2555.0
2566.0
2518.0
2483.0
2531.0
2543.0
2547.0
2534.0
2479.0
2487.0
2539.0
2487.0
2478.0
2483.0
2511.0
2511.0
2462.0
2458.0
2467.0
2547.0
2535.0
2535.0
2543.0
2446.0
2458.0
2511.0
2506.0
2517.0
2502.0
2491.0
2499.0
2502.0
2458.0
2435.0
2443.0
2462.0
2439.0
2487.0
2426.0
2431.0
2459.0
2439.0
2486.0
2423.0
2487.0
2479.0
2403.0
2443.0
2443.0
2462.0
2391.0
2411.0
2411.0
2411.0
2384.0
2431.0
2394.0
2390.0
2375.0
2435.0
2422.0
2434.0
2398.0
2424.0
2375.0
2367.0
2367.0
2411.0
2371.0
2395.0
2367.0
2360.0
2331.0
2319.0
2378.0
2386.0
2355.0
2343.0
2335.0
2302.0
2366.0
2335.0
2291.0
2294.0
2315.0
2358.0
2311.0
2326.0
2307.0
2319.0
2331.0
2254.0
2294.0
2295.0
2267.0
2303.0
2266.0
2286.0
2259.0
2242.0
2250.0
2299.0
2295.0
2227.0
2230.0
2250.0
2283.0
2287.0
2243.0
2290.0
2254.0
2278.0
2207.0
2231.0
2199.0
2215.0
2270.0
2242.0
2255.0
2207.0
2231.0
2254.0
2187.0
2183.0
2227.0
2167.0
2231.0
2231.0
2182.0
2203.0
2222.0
2231.0
2219.0
2147.0
2143.0
2167.0
2195.0
2167.0
2163.0
2151.0
2190.0
2147.0
2127.0
2171.0
2203.0
2191.0
2126.0
2103.0
2139.0
2134.0
2150.0
2166.0
2111.0
2127.0
2094.0
2151.0
2118.0
2125.0
2146.0
2174.0
2091.0
2075.0
2158.0
2075.0
2075.0
2154.0
2151.0
2091.0
2074.0
2064.0
2139.0
2087.0
2098.0
2103.0
2111.0
2130.0
2072.0
2110.0
2067.0
2059.0
2054.0
2111.0
2060.0
2059.0
2047.0
2067.0
2079.0
2035.0
2040.0
2030.0
2094.0
2017.0
2015.0
2018.0
2051.0
2071.0
2007.0
2027.0
2064.0
2066.0
2003.0
2018.0
2011.0
2062.0
2047.0
2011.0
2035.0
2022.0
1991.0
1990.0
1967.0
2003.0
1990.0
1986.0
2010.0
2026.0
2066.0
2038.0
1986.0
2062.0
2038.0
1975.0
2007.0
2019.0
1983.0
2006.0
2034.0
2019.0
1982.0
1963.0
2026.0
1991.0
2047.0
2023.0
1971.0
2031.0
2038.0
1999.0
2018.0
2019.0
1991.0
1983.0
1960.0
1971.0
2018.0
2014.0
1952.0
1951.0
1966.0
2034.0
2035.0
1979.0
1991.0
1978.0
1970.0
2026.0
2014.0
1963.0
2034.0
2027.0
1954.0
2015.0
1983.0
1962.0
1958.0
1994.0
2019.0
1954.0
1962.0
2038.0
1991.0
1951.0
2023.0
1958.0
2002.0
1963.0
2038.0
1955.0
2027.0
1978.0
1979.0
2017.0
1970.0
1971.0
1966.0
1979.0
2042.0
2011.0
2011.0
2031.0
1987.0
2078.0
2042.0
2055.0
2071.0
2055.0
2111.0
2082.0
2135.0
2122.0
2150.0
2190.0
2150.0
2175.0
2175.0
2214.0
2294.0
2303.0
2311.0
2282.0
2323.0
2343.0
2415.0
2403.0
2382.0
2499.0
2446.0
2530.0
2511.0
2571.0
2615.0
2587.0
2647.0
2614.0
2651.0
2679.0
2739.0
2739.0
2743.0
2762.0
2803.0
2882.0
2811.0
2850.0
2943.0
2915.0
2926.0
2998.0
2979.0
3030.0
3015.0
3027.0
3035.0
3058.0
3086.0
3139.0
3107.0
3127.0
3163.0
3143.0
3199.0
3243.0
3243.0
3211.0
3262.0
3231.0
3340.0
3335.0
3310.0
3302.0
3319.0
3383.0
3363.0
3407.0
3379.0
3383.0
3379.0
3407.0
3390.0
3379.0
3450.0
3447.0
3423.0
3455.0
3507.0
3490.0
3470.0
3451.0
3507.0
3443.0
3490.0
3463.0
3499.0
3472.0
3455.0
3435.0
3450.0
3494.0
3451.0
3426.0
3455.0
3503.0
3491.0
3431.0
3475.0
3431.0
3427.0
3446.0
3446.0
3507.0
3451.0
3423.0
