2154.0
2163.0
2119.0
2119.0
2119.0
2106.0
2111.0
2115.0
2142.0
2107.0
2150.0
2138.0
2143.0
2147.0
2115.0
2127.0
2134.0
2102.0
2138.0
2134.0
2135.0
2083.0
2094.0
2123.0
2126.0
2127.0
2091.0
2091.0
2127.0
2091.0
2124.0
2087.0
2091.0
2127.0
2107.0
2120.0
2131.0
2076.0
2119.0
2095.0
2131.0
2118.0
2103.0
2071.0
2075.0
2107.0
2098.0
2067.0
2075.0
2118.0
2115.0
2063.0
2067.0
2099.0
2070.0
2091.0
2075.0
2079.0
2079.0
2095.0
2078.0
2066.0
2107.0
2071.0
2075.0
2107.0
2102.0
2087.0
2055.0
2103.0
2115.0
2098.0
2095.0
2063.0
2107.0
2082.0
2123.0
2095.0
2095.0
2114.0
2094.0
2067.0
2079.0
2076.0
2079.0
2080.0
2063.0
2119.0
2102.0
2097.0
2112.0
2123.0
2116.0
2107.0
2130.0
2114.0
2079.0
2067.0
2110.0
2075.0
2087.0
2079.0
2050.0
2115.0
2095.0
2091.0
2067.0
2094.0
2059.0
2122.0
2084.0
2075.0
2115.0
2106.0
2136.0
2063.0
2047.0
2116.0
2074.0
2095.0
2062.0
2071.0
2119.0
2059.0
2067.0
2110.0
2119.0
2099.0
2070.0
2114.0
2111.0
2111.0
2095.0
2067.0
2083.0
2058.0
2087.0
2087.0
2102.0
2066.0
2062.0
2119.0
2066.0
2091.0
2083.0
2074.0
2118.0
2102.0
2066.0
2107.0
2067.0
2123.0
2098.0
2063.0
2095.0
2107.0
2079.0
2097.0
2074.0
2070.0
2083.0
2102.0
2086.0
2067.0
2114.0
2058.0
2126.0
2098.0
2111.0
2139.0
2123.0
2119.0
2103.0
2118.0
2106.0
2122.0
2160.0
2170.0
2146.0
2123.0
2142.0
2135.0
2186.0
2148.0
2175.0
2171.0
2207.0
2199.0
2194.0
2171.0
2187.0
2242.0
2239.0
2251.0
2242.0
2264.0
2267.0
2275.0
2278.0
2275.0
2282.0
2315.0
2339.0
2327.0
2315.0
2346.0
2311.0
2368.0
2367.0
2359.0
2383.0
2390.0
2380.0
2423.0
2407.0
2422.0
2411.0
2442.0
2487.0
2448.0
2451.0
2486.0
2474.0
2499.0
2519.0
2499.0
2507.0
2575.0
2559.0
2582.0
2588.0
2555.0
2623.0
2599.0
2603.0
2638.0
2659.0
2647.0
2663.0
2635.0
2663.0
2675.0
2699.0
2677.0
2687.0
2704.0
2735.0
2754.0
2715.0
2722.0
2767.0
2727.0
2774.0
2738.0
2763.0
2755.0
2775.0
2810.0
2771.0
2787.0
2815.0
2791.0
2811.0
2815.0
2842.0
2823.0
2815.0
2830.0
2815.0
2827.0
2863.0
2851.0
2867.0
2858.0
2875.0
2850.0
2891.0
2891.0
2851.0
2890.0
2914.0
2891.0
2870.0
2919.0
2867.0
2874.0
2875.0
2899.0
2871.0
2871.0
2943.0
2890.0
2895.0
2907.0
2899.0
2906.0
2895.0
2887.0
2872.0
2911.0
2915.0
2871.0
2891.0
2903.0
2907.0
2927.0
2894.0
2907.0
2923.0
2907.0
2874.0
2899.0
2902.0
2915.0
2887.0
2882.0
2903.0
2919.0
2882.0
2895.0
2883.0
2891.0
2874.0
2843.0
2859.0
2875.0
2899.0
2878.0
2854.0
2846.0
2895.0
2887.0
2879.0
2839.0
2862.0
2867.0
2875.0
2822.0
2826.0
2860.0
2823.0
2839.0
2854.0
2839.0
2835.0
2826.0
2818.0
2835.0
2830.0
2815.0
2791.0
2814.0
2819.0
2791.0
2831.0
2794.0
2787.0
2815.0
2782.0
2783.0
2806.0
2771.0
2827.0
2771.0
2754.0
2799.0
2767.0
2790.0
2799.0
2763.0
2794.0
2775.0
2767.0
2755.0
2775.0
2755.0
2759.0
2779.0
2747.0
2802.0
2735.0
2750.0
2730.0
2759.0
2760.0
2731.0
2770.0
2751.0
2727.0
2707.0
2735.0
2735.0
2731.0
2775.0
2727.0
2735.0
2702.0
2715.0
2687.0
2695.0
2743.0
2722.0
2689.0
2683.0
2682.0
2687.0
2719.0
2718.0
2714.0
2728.0
2710.0
2698.0
2698.0
2671.0
2690.0
2702.0
2663.0
2695.0
2707.0
2651.0
2682.0
2679.0
2639.0
2651.0
2666.0
2657.0
2678.0
2678.0
2619.0
2638.0
2642.0
2619.0
2656.0
2655.0
2646.0
2650.0
2627.0
2643.0
2619.0
2663.0
2630.0
2591.0
2622.0
2622.0
2595.0
2599.0
2591.0
2619.0
2586.0
2602.0
2623.0
2579.0
2599.0
2603.0
2599.0
2559.0
2607.0
2611.0
2543.0
2574.0
2559.0
2591.0
2555.0
2551.0
2543.0
2587.0
2590.0
2522.0
2570.0
2563.0
2534.0
2574.0
2571.0
2567.0
2563.0
2538.0
2555.0
2559.0
2531.0
2522.0
2554.0
2543.0
2507.0
2523.0
2574.0
2551.0
2547.0
2563.0
2554.0
2539.0
2559.0
2542.0
2559.0
2538.0
2523.0
2528.0
2558.0
2534.0
2534.0
2570.0
2551.0
2551.0
2535.0
2539.0
2551.0
2527.0
2535.0
2555.0
2555.0
2574.0
2520.0
2571.0
2536.0
2523.0
2550.0
2526.0
2519.0
2555.0
2554.0
2527.0
2582.0
2535.0
2567.0
2528.0
2538.0
2514.0
2528.0
2555.0
2558.0
2566.0
2575.0
2527.0
2547.0
2563.0
2563.0
2579.0
2558.0
2583.0
2563.0
2543.0
2571.0
2586.0
2567.0
2561.0
2590.0
2603.0
2562.0
2563.0
2571.0
2543.0
2554.0
2611.0
2591.0
2567.0
2543.0
2587.0
2590.0
2599.0
2544.0
2547.0
2559.0
2558.0
2595.0
2559.0
2595.0
2610.0
2555.0
2543.0
2542.0
2574.0
2579.0
2583.0
2555.0
2571.0
2579.0
2595.0
2571.0
2599.0
2543.0
2547.0
2567.0
2539.0
2543.0
2566.0
2538.0
2558.0
2551.0
2535.0
2531.0
2571.0
2575.0
2579.0
2540.0
2575.0
2519.0
2583.0
2531.0
2559.0
2574.0
2523.0
2522.0
2526.0
2526.0
2555.0
2511.0
2544.0
2553.0
2523.0
2535.0
2539.0
2563.0
2538.0
2534.0
2539.0
2507.0
2515.0
2498.0
2490.0
2519.0
2494.0
2523.0
2479.0
2507.0
2486.0
2494.0
2478.0
2490.0
2515.0
2471.0
2526.0
2499.0
2482.0
2503.0
2478.0
2478.0
2518.0
2479.0
2514.0
2507.0
2474.0
2494.0
2471.0
2455.0
2463.0
2486.0
2463.0
2491.0
2490.0
2451.0
2478.0
2451.0
2495.0
2491.0
2482.0
2443.0
2463.0
2439.0
2439.0
2438.0
2467.0
2459.0
2455.0
2410.0
2451.0
2414.0
2440.0
2455.0
2462.0
2439.0
2463.0
2443.0
2386.0
2403.0
2447.0
2427.0
2395.0
2451.0
2451.0
2394.0
2399.0
2383.0
2395.0
2411.0
2423.0
2410.0
2398.0
2411.0
2398.0
2382.0
2362.0
2387.0
2383.0
2383.0
2378.0
2379.0
2351.0
2347.0
2375.0
2359.0
2387.0
2379.0
2323.0
2387.0
2331.0
2351.0
2362.0
2343.0
2324.0
2339.0
2363.0
2311.0
2314.0
2310.0
2311.0
2335.0
2367.0
2335.0
2355.0
2315.0
2335.0
2331.0
2299.0
2327.0
2327.0
2334.0
2294.0
2292.0
2335.0
2255.0
2312.0
2294.0
2294.0
2267.0
2295.0
2298.0
2275.0
2299.0
2271.0
2279.0
2274.0
2294.0
2255.0
2303.0
2263.0
2258.0
2300.0
2298.0
2251.0
2242.0
2267.0
2263.0
2259.0
2286.0
2290.0
2251.0
2262.0
2243.0
2255.0
2251.0
2243.0
2271.0
2267.0
2223.0
2263.0
2223.0
2207.0
2279.0
2234.0
2231.0
2250.0
2219.0
2219.0
2267.0
2230.0
2230.0
2266.0
2234.0
2235.0
2199.0
2222.0
2230.0
2262.0
2203.0
2251.0
2247.0
2214.0
2223.0
2214.0
2215.0
2199.0
2260.0
2239.0
2243.0
2202.0
2202.0
2214.0
2259.0
2210.0
2219.0
2215.0
2199.0
2190.0
2199.0
2226.0
2174.0
2198.0
2226.0
2231.0
2218.0
2234.0
2210.0
2235.0
2203.0
2206.0
2226.0
2243.0
2191.0
2231.0
2196.0
2215.0
2223.0
2215.0
2232.0
2199.0
2194.0
2208.0
2187.0
2227.0
2187.0
2235.0
2183.0
2218.0
2195.0
2239.0
2211.0
2191.0
2199.0
2235.0
2215.0
2223.0
2195.0
2206.0
2219.0
2191.0
2227.0
2206.0
2211.0
2235.0
2186.0
2190.0
2250.0
2186.0
2219.0
2175.0
2182.0
2195.0
2199.0
2239.0
2227.0
2187.0
2239.0
2223.0
2222.0
2203.0
2211.0
2223.0
2182.0
2238.0
2211.0
2192.0
2252.0
2223.0
2187.0
2191.0
2238.0
2251.0
2227.0
2195.0
2179.0
2190.0
2211.0
2242.0
2199.0
2202.0
2234.0
2215.0
2200.0
2242.0
2183.0
2206.0
2190.0
2231.0
2231.0
2198.0
2223.0
2210.0
2206.0
2246.0
2219.0
2231.0
2183.0
2186.0
2232.0
2239.0
2202.0
2191.0
2187.0
2230.0
2195.0
2247.0
2195.0
2251.0
2191.0
2199.0
2186.0
2215.0
2187.0
2190.0
2186.0
2230.0
2235.0
2191.0
2194.0
2191.0
2227.0
2219.0
2223.0
2226.0
2230.0
2223.0
2218.0
2179.0
2193.0
2179.0
2247.0
2211.0
2207.0
2206.0
2235.0
2199.0
2182.0
2186.0
2211.0
2194.0
2206.0
2223.0
2215.0
2203.0
2186.0
2255.0
2266.0
2202.0
2243.0
2210.0
2255.0
2227.0
2211.0
2247.0
2274.0
2227.0
2230.0
2266.0
2236.0
2235.0
2294.0
2252.0
2255.0
2259.0
2267.0
2314.0
2290.0
2335.0
2327.0
2331.0
2370.0
2363.0
2343.0
2382.0
2402.0
2410.0
2367.0
2386.0
2375.0
2415.0
2400.0
2459.0
2407.0
2451.0
2479.0
2474.0
2471.0
2495.0
2487.0
2503.0
2507.0
2547.0
2539.0
2531.0
2534.0
2611.0
2559.0
2601.0
2591.0
2618.0
2651.0
2611.0
2618.0
2687.0
2667.0
2650.0
2704.0
2687.0
2690.0
2686.0
2758.0
2751.0
2782.0
2755.0
2734.0
2799.0
2755.0
2787.0
2811.0
2822.0
2810.0
2827.0
2864.0
2807.0
2819.0
2872.0
2907.0
2867.0
2859.0
2870.0
2887.0
2922.0
2886.0
2875.0
2895.0
2946.0
2927.0
2926.0
2926.0
2919.0
2927.0
2966.0
2954.0
2946.0
2943.0
2931.0
2970.0
2960.0
2979.0
2971.0
3027.0
2995.0
2963.0
2966.0
2967.0
3015.0
3010.0
2971.0
3011.0
3018.0
2986.0
3018.0
2995.0
2994.0
3011.0
3003.0
3055.0
3031.0
3003.0
3043.0
3019.0
3003.0
2999.0
3007.0
3014.0
3014.0
3030.0
3035.0
3006.0
3010.0
2998.0
2979.0
3051.0
3023.0
2999.0
2999.0
3030.0
2996.0
3014.0
3019.0
3027.0
2987.0
3039.0
2966.0
2995.0
3030.0
2978.0
3015.0
3011.0
3019.0
2968.0
2991.0
2971.0
2973.0
2986.0
2955.0
2983.0
2971.0
2975.0
2971.0
2943.0
2943.0
2935.0
2947.0
2935.0
2950.0
2919.0
2922.0
2935.0
2923.0
2935.0
2915.0
2935.0
2914.0
2911.0
2947.0
2927.0
2915.0
2895.0
2938.0
2903.0
2943.0
2926.0
2911.0
2931.0
2898.0
2927.0
2867.0
2878.0
2915.0
2859.0
2914.0
2883.0
2919.0
2879.0
2887.0
2863.0
2866.0
2902.0
2875.0
2895.0
2850.0
2854.0
2871.0
2887.0
2831.0
2819.0
2878.0
2863.0
2882.0
2843.0
2855.0
2835.0
2881.0
2846.0
2823.0
2887.0
2878.0
2838.0
2863.0
2838.0
2859.0
2834.0
2835.0
2847.0
2835.0
2855.0
2823.0
2811.0
2811.0
2815.0
2795.0
2822.0
2787.0
2775.0
2819.0
2814.0
2787.0
2811.0
2775.0
2787.0
2823.0
2787.0
2766.0
2787.0
2767.0
2795.0
2751.0
2750.0
2783.0
2794.0
2770.0
2779.0
2755.0
2782.0
2734.0
2715.0
2735.0
2739.0
2727.0
2759.0
2731.0
2731.0
2742.0
2743.0
2727.0
2747.0
2699.0
2707.0
2719.0
2743.0
2703.0
2714.0
2742.0
2731.0
2691.0
2690.0
2699.0
2691.0
2711.0
2703.0
2679.0
2691.0
2710.0
2691.0
2670.0
2706.0
2655.0
2655.0
2682.0
2691.0
2679.0
2658.0
2674.0
2635.0
2683.0
2635.0
2686.0
2640.0
2671.0
2654.0
2655.0
2646.0
2643.0
2654.0
2672.0
2654.0
2671.0
2643.0
2627.0
2626.0
2659.0
2624.0
2663.0
2630.0
2667.0
2647.0
2659.0
2634.0
2619.0
2671.0
2666.0
2659.0
2623.0
2632.0
2659.0
2626.0
2634.0
2642.0
2607.0
2618.0
2622.0
2646.0
2639.0
2635.0
2655.0
2683.0
2646.0
2643.0
2671.0
2647.0
2671.0
2683.0
2631.0
2631.0
2643.0
2646.0
2663.0
2631.0
2626.0
2655.0
2634.0
2670.0
2639.0
2675.0
2667.0
2647.0
2666.0
2699.0
2631.0
2643.0
2675.0
2695.0
2667.0
2706.0
2663.0
2679.0
2675.0
2631.0
2643.0
2648.0
2663.0
2643.0
2687.0
2651.0
2687.0
2695.0
2659.0
2679.0
2674.0
2703.0
2651.0
2687.0
2678.0
2686.0
2679.0
2651.0
2706.0
2642.0
2658.0
2683.0
2668.0
2643.0
2663.0
2691.0
2687.0
2651.0
2699.0
2651.0
2679.0
2655.0
2654.0
2699.0
2678.0
2646.0
2680.0
2678.0
2700.0
2671.0
2666.0
2642.0
2638.0
2662.0
2667.0
2675.0
2651.0
2647.0
2635.0
2694.0
2627.0
2662.0
2643.0
2679.0
2622.0
2638.0
2639.0
2658.0
2623.0
2658.0
2607.0
2659.0
2682.0
2631.0
2666.0
2651.0
2615.0
2623.0
2606.0
2650.0
2627.0
2611.0
2615.0
2623.0
2643.0
2643.0
2611.0
2622.0
2615.0
2587.0
2608.0
2619.0
2627.0
2607.0
2599.0
2642.0
2563.0
2603.0
2627.0
2611.0
2554.0
2579.0
2550.0
2563.0
2563.0
2586.0
2555.0
2546.0
2563.0
2571.0
2555.0
2578.0
2595.0
2555.0
2578.0
2530.0
2586.0
2547.0
2562.0
2531.0
2535.0
2571.0
2551.0
2551.0
2567.0
2523.0
2535.0
2515.0
2494.0
2526.0
2487.0
2503.0
2534.0
2527.0
2530.0
2479.0
2490.0
2503.0
2510.0
2494.0
2511.0
2491.0
2522.0
2495.0
2478.0
2455.0
2503.0
2459.0
2479.0
2478.0
2451.0
2458.0
2478.0
2455.0
2499.0
2443.0
2455.0
2443.0
2475.0
2459.0
2467.0
2454.0
2438.0
2434.0
2451.0
2450.0
2455.0
2451.0
2423.0
2446.0
2391.0
2415.0
2439.0
2446.0
2419.0
2414.0
2398.0
2375.0
2402.0
2423.0
2415.0
2443.0
2395.0
2391.0
2366.0
2388.0
2383.0
2370.0
2374.0
2358.0
2383.0
2403.0
2378.0
2406.0
2415.0
2387.0
2394.0
2376.0
2387.0
2390.0
2399.0
2372.0
2343.0
2342.0
2347.0
2350.0
2342.0
2370.0
2379.0
2363.0
2359.0
2347.0
2352.0
2319.0
2371.0
2344.0
2386.0
2375.0
2375.0
2318.0
2315.0
2354.0
2371.0
2366.0
2363.0
2331.0
2314.0
2319.0
2319.0
2302.0
2358.0
2335.0
2351.0
2319.0
2311.0
2287.0
2299.0
2316.0
2306.0
2318.0
2334.0
2335.0
2322.0
2339.0
2285.0
2303.0
2270.0
2296.0
2289.0
2314.0
2271.0
2314.0
2298.0
2303.0
2286.0
2270.0
2308.0
2336.0
2288.0
2295.0
2267.0
2286.0
2295.0
2311.0
2279.0
2263.0
2327.0
2278.0
2255.0
2279.0
2247.0
2247.0
2271.0
2299.0
2250.0
2307.0
2299.0
2251.0
2258.0
2256.0
2283.0
2251.0
2239.0
2267.0
2259.0
2286.0
2267.0
2251.0
2303.0
2280.0
2263.0
2267.0
2262.0
2267.0
2258.0
2251.0
2255.0
2263.0
2284.0
2237.0
2240.0
2276.0
2274.0
2255.0
2230.0
2259.0
2290.0
2240.0
2215.0
2251.0
2242.0
2203.0
2278.0
2270.0
2206.0
2223.0
2266.0
2250.0
2256.0
2223.0
2218.0
2250.0
2266.0
2230.0
2267.0
2235.0
2234.0
2198.0
2263.0
2207.0
2231.0
2260.0
2264.0
2254.0
2246.0
2262.0
2247.0
2218.0
2259.0
2223.0
2262.0
2214.0
2211.0
2199.0
2198.0
2231.0
2199.0
2231.0
2243.0
2231.0
2191.0
2243.0
2231.0
2259.0
2267.0
2199.0
2227.0
2191.0
2226.0
2202.0
2226.0
2236.0
2215.0
2195.0
2254.0
2243.0
2258.0
2195.0
2247.0
2206.0
2223.0
2227.0
2198.0
2246.0
2218.0
2240.0
2190.0
2202.0
2247.0
2230.0
2243.0
2231.0
2207.0
2199.0
2214.0
2190.0
2251.0
2227.0
2219.0
2183.0
2223.0
2203.0
2171.0
2179.0
2232.0
2182.0
2207.0
2187.0
2183.0
2198.0
2198.0
2243.0
2207.0
2199.0
2163.0
2191.0
2219.0
2165.0
2231.0
2186.0
2211.0
2191.0
2194.0
2175.0
2171.0
2207.0
2186.0
2183.0
2202.0
2167.0
2215.0
2186.0
2211.0
2215.0
2159.0
2206.0
2175.0
2223.0
2178.0
2186.0
2211.0
2164.0
2163.0
2182.0
2207.0
2206.0
2195.0
2227.0
2175.0
2211.0
2171.0
2199.0
2175.0
2159.0
2171.0
2203.0
2187.0
2159.0
2179.0
2183.0
2199.0
2174.0
2227.0
2167.0
2247.0
2202.0
2206.0
2243.0
2246.0
2218.0
2267.0
2223.0
2267.0
2247.0
2231.0
2275.0
2286.0
2319.0
2327.0
2298.0
2343.0
2318.0
2323.0
2379.0
2358.0
2351.0
2411.0
2415.0
2426.0
2391.0
2377.0
2434.0
2455.0
2439.0
2455.0
2419.0
2470.0
2446.0
2455.0
2486.0
2479.0
2482.0
2495.0
2555.0
2527.0
2583.0
2579.0
2570.0
2559.0
2590.0
2619.0
2607.0
2643.0
2614.0
2619.0
2622.0
2671.0
2635.0
2695.0
2674.0
2683.0
2707.0
2686.0
2706.0
2751.0
2727.0
2726.0
2739.0
2763.0
2752.0
2779.0
2807.0
2799.0
2798.0
2811.0
2791.0
2811.0
2807.0
2842.0
2834.0
2831.0
2843.0
2894.0
2855.0
2847.0
2887.0
2883.0
2863.0
2883.0
2907.0
2910.0
2918.0
2927.0
2883.0
2907.0
2907.0
2947.0
2911.0
2907.0
2950.0
2915.0
2923.0
2962.0
2951.0
2942.0
2959.0
2979.0
2944.0
2951.0
2982.0
2951.0
3003.0
2959.0
3003.0
2979.0
2959.0
2955.0
2963.0
2963.0
2970.0
2983.0
2982.0
2975.0
2951.0
2999.0
2951.0
2999.0
2970.0
2975.0
2994.0
2954.0
2947.0
2943.0
2955.0
2947.0
2959.0
2931.0
2934.0
2959.0
2926.0
2919.0
2967.0
2935.0
2947.0
2919.0
2915.0
2946.0
2931.0
2979.0
2930.0
2931.0
2955.0
2963.0
2947.0
2939.0
2931.0
2906.0
2903.0
2894.0
2895.0
2923.0
2891.0
2926.0
2883.0
2867.0
2918.0
2858.0
2899.0
2907.0
2872.0
2855.0
2899.0
2882.0
2879.0
2875.0
2862.0
2882.0
2862.0
2839.0
2875.0
2835.0
2870.0
2846.0
2819.0
2850.0
2835.0
2815.0
2854.0
2859.0
2831.0
2843.0
2814.0
2859.0
2799.0
2803.0
2807.0
2839.0
2839.0
2783.0
2804.0
2791.0
2803.0
2799.0
2782.0
2791.0
2795.0
2791.0
2784.0
2806.0
2814.0
2767.0
2803.0
2787.0
2779.0
2811.0
2746.0
2768.0
2791.0
2743.0
2767.0
2747.0
2747.0
2783.0
2747.0
2783.0
2751.0
2755.0
2775.0
2755.0
2743.0
2723.0
2739.0
2743.0
2734.0
2731.0
2727.0
2735.0
2744.0
2734.0
2718.0
2722.0
2735.0
2727.0
2747.0
2717.0
2715.0
2726.0
2700.0
2731.0
2674.0
2722.0
2679.0
2695.0
2723.0
2695.0
2734.0
2694.0
2662.0
2659.0
2667.0
2703.0
2671.0
2667.0
2651.0
2646.0
2691.0
2675.0
2658.0
2670.0
2691.0
2682.0
2694.0
2651.0
2639.0
2635.0
2651.0
2659.0
2619.0
2623.0
2638.0
2643.0
2643.0
2611.0
2655.0
2654.0
2595.0
2638.0
2659.0
2623.0
2612.0
2623.0
2630.0
2595.0
2627.0
2603.0
2623.0
2594.0
2583.0
2607.0
2595.0
2631.0
2586.0
2622.0
2619.0
2599.0
2615.0
2627.0
2603.0
2627.0
2596.0
2667.0
2602.0
2591.0
2583.0
2590.0
2590.0
2583.0
2631.0
2586.0
2575.0
2574.0
2610.0
2628.0
2602.0
2611.0
2602.0
2643.0
2618.0
2639.0
2606.0
2582.0
2583.0
2634.0
2631.0
2582.0
2619.0
2611.0
