2646.0
2626.0
2590.0
2527.0
2598.0
2618.0
2515.0
2503.0
2594.0
2498.0
2599.0
2535.0
2511.0
2527.0
2547.0
2499.0
2510.0
2483.0
2555.0
2578.0
2530.0
2551.0
2570.0
2474.0
2551.0
2535.0
2531.0
2463.0
2443.0
2507.0
2543.0
2539.0
2495.0
2443.0
2494.0
2426.0
2419.0
2439.0
2443.0
2439.0
2503.0
2403.0
2499.0
2462.0
2490.0
2411.0
2442.0
2435.0
2474.0
2507.0
2441.0
2477.0
2474.0
2495.0
2411.0
2506.0
2483.0
2447.0
2482.0
2402.0
2487.0
2406.0
2382.0
2426.0
2471.0
2475.0
2395.0
2467.0
2391.0
2383.0
2331.0
2350.0
2363.0
2438.0
2403.0
2423.0
2319.0
2339.0
2315.0
2431.0
2307.0
2314.0
2363.0
2295.0
2360.0
2291.0
2291.0
2378.0
2391.0
2387.0
2358.0
2259.0
2282.0
2270.0
2312.0
2339.0
2335.0
2323.0
2239.0
2334.0
2287.0
2226.0
2223.0
2267.0
2303.0
2287.0
2203.0
2214.0
2235.0
2171.0
2175.0
2286.0
2186.0
2282.0
2268.0
2179.0
2183.0
2211.0
2247.0
2207.0
2162.0
2146.0
2127.0
2138.0
2183.0
2171.0
2211.0
2142.0
2195.0
2154.0
2128.0
2122.0
2175.0
2170.0
2090.0
2110.0
2130.0
2138.0
2170.0
2087.0
2155.0
2099.0
2115.0
2070.0
2139.0
2102.0
2142.0
2107.0
2039.0
2095.0
2047.0
2050.0
2047.0
2111.0
2062.0
2107.0
2019.0
1991.0
2066.0
2071.0
2006.0
1998.0
2000.0
1999.0
1983.0
2062.0
2006.0
2050.0
1963.0
2030.0
2034.0
1984.0
2063.0
1970.0
2038.0
2034.0
1975.0
1935.0
1919.0
2030.0
2007.0
2023.0
1923.0
1936.0
1955.0
1991.0
1978.0
1895.0
1923.0
1963.0
1954.0
1915.0
1895.0
1990.0
1983.0
1934.0
1954.0
1947.0
1886.0
1986.0
1867.0
1914.0
1971.0
1970.0
1859.0
1926.0
1855.0
1963.0
1850.0
1887.0
1926.0
1842.0
1914.0
1895.0
1954.0
1874.0
1838.0
1947.0
1931.0
1855.0
1838.0
1886.0
1883.0
1870.0
1935.0
1854.0
1855.0
1854.0
1846.0
1855.0
1827.0
1815.0
1894.0
1898.0
1847.0
1910.0
1866.0
1902.0
1883.0
1879.0
1847.0
1827.0
1850.0
1807.0
1907.0
1882.0
1838.0
1899.0
1870.0
1890.0
1823.0
1823.0
1815.0
1827.0
1887.0
1803.0
1843.0
1882.0
1886.0
1906.0
1835.0
1898.0
1835.0
1862.0
1878.0
1862.0
1782.0
1782.0
1910.0
1875.0
1894.0
1790.0
1858.0
1899.0
1838.0
1846.0
1787.0
1790.0
1833.0
1823.0
1774.0
1855.0
1843.0
1782.0
1767.0
1791.0
1787.0
1811.0
1887.0
1807.0
1827.0
1766.0
1776.0
1775.0
1842.0
1843.0
1791.0
1842.0
1878.0
1874.0
1794.0
1750.0
1867.0
1762.0
1866.0
1749.0
1871.0
1760.0
1862.0
1839.0
1778.0
1850.0
1855.0
1859.0
1814.0
1783.0
1835.0
1836.0
1754.0
1847.0
1739.0
1763.0
1831.0
1747.0
1803.0
1775.0
1726.0
1767.0
1779.0
1767.0
1726.0
1751.0
1722.0
1722.0
1726.0
1815.0
1811.0
1795.0
1752.0
1706.0
1715.0
1810.0
1702.0
1814.0
1722.0
1738.0
1770.0
1763.0
1699.0
1714.0
1771.0
1774.0
1699.0
1683.0
1783.0
1755.0
1699.0
1691.0
1711.0
1794.0
1719.0
1683.0
1783.0
1791.0
1763.0
1679.0
1778.0
1726.0
1763.0
1712.0
1675.0
1682.0
1715.0
1679.0
1679.0
1776.0
1687.0
1790.0
1722.0
1754.0
1735.0
1808.0
1730.0
1715.0
1763.0
1715.0
1731.0
1750.0
1746.0
1823.0
1823.0
1858.0
1835.0
1802.0
1798.0
1827.0
1826.0
1928.0
1953.0
1906.0
1883.0
1958.0
1999.0
2047.0
2043.0
2019.0
1998.0
2102.0
2162.0
2186.0
2211.0
2184.0
2166.0
2286.0
2239.0
2311.0
2398.0
2386.0
2328.0
2427.0
2406.0
2438.0
2486.0
2531.0
2542.0
2571.0
2691.0
2735.0
2667.0
2794.0
2834.0
2866.0
2887.0
2890.0
2855.0
2875.0
2899.0
3030.0
2959.0
3098.0
3035.0
3087.0
3163.0
3099.0
3170.0
3175.0
3287.0
3322.0
3338.0
3347.0
3359.0
3326.0
3411.0
3391.0
3471.0
3487.0
3407.0
3431.0
3436.0
3458.0
3519.0
3587.0
3579.0
3514.0
3547.0
3594.0
3600.0
3659.0
3585.0
3671.0
3643.0
3631.0
3599.0
3611.0
3715.0
3627.0
3658.0
3666.0
3682.0
3711.0
3731.0
3670.0
3763.0
3711.0
3670.0
3655.0
3671.0
3683.0
3779.0
3731.0
3671.0
3767.0
3762.0
3719.0
3699.0
3731.0
3667.0
3671.0
3683.0
3770.0
3715.0
3671.0
3683.0
3690.0
3666.0
3774.0
3739.0
3742.0
3771.0
3699.0
3690.0
3663.0
3770.0
3679.0
3747.0
3750.0
3683.0
3655.0
3639.0
3671.0
3743.0
3739.0
3675.0
3739.0
3699.0
3722.0
3715.0
3671.0
3695.0
3646.0
3643.0
3631.0
3615.0
3703.0
3599.0
3630.0
3687.0
3626.0
3607.0
3655.0
3599.0
3582.0
3595.0
3582.0
3687.0
3611.0
3675.0
3614.0
3678.0
3555.0
3671.0
3659.0
3558.0
3563.0
3627.0
3543.0
3579.0
3615.0
3639.0
3571.0
3527.0
3535.0
3558.0
3522.0
3530.0
3519.0
3511.0
3559.0
3626.0
3611.0
3579.0
3555.0
3519.0
3495.0
3495.0
3579.0
3555.0
3551.0
3551.0
3494.0
3526.0
3547.0
3458.0
3562.0
3495.0
3547.0
3440.0
3475.0
3551.0
3427.0
3475.0
3478.0
3495.0
3418.0
3511.0
3434.0
3483.0
3451.0
3395.0
3398.0
3487.0
3411.0
3371.0
3483.0
3363.0
3363.0
3383.0
3387.0
3399.0
3403.0
3327.0
3327.0
3322.0
3382.0
3375.0
3315.0
3395.0
3267.0
3315.0
3367.0
3351.0
3327.0
3295.0
3283.0
3319.0
3263.0
3243.0
3274.0
3226.0
3267.0
3151.0
3215.0
3158.0
3207.0
3182.0
3171.0
3087.0
3182.0
3102.0
3150.0
3091.0
3126.0
3019.0
3114.0
3112.0
3071.0
3030.0
2975.0
2991.0
3027.0
2971.0
3048.0
2915.0
2911.0
3007.0
2894.0
2886.0
2871.0
2963.0
2883.0
2867.0
2826.0
2850.0
2826.0
2806.0
2855.0
2894.0
2890.0
2847.0
2795.0
2847.0
2859.0
2771.0
2862.0
2799.0
2758.0
2747.0
2811.0
2719.0
2771.0
2727.0
2775.0
2699.0
2699.0
2759.0
2723.0
2787.0
2675.0
2751.0
2699.0
2775.0
2746.0
2658.0
2742.0
2655.0
2642.0
2743.0
2691.0
2743.0
2730.0
2694.0
2715.0
2618.0
2711.0
2682.0
2710.0
2695.0
2686.0
2659.0
2690.0
2630.0
2635.0
2638.0
2622.0
2663.0
2595.0
2631.0
2663.0
2611.0
2664.0
2687.0
2611.0
2675.0
2642.0
2635.0
2610.0
2566.0
2603.0
2567.0
2594.0
2640.0
2603.0
2575.0
2595.0
2607.0
2542.0
2570.0
2539.0
2574.0
2624.0
2547.0
2631.0
2558.0
2634.0
2546.0
2567.0
2523.0
2558.0
2523.0
2523.0
2607.0
2507.0
2518.0
2555.0
2555.0
2582.0
2599.0
2530.0
2503.0
2534.0
2499.0
2487.0
2535.0
2483.0
2579.0
2520.0
2463.0
2531.0
2563.0
2466.0
2487.0
2571.0
2546.0
2455.0
2475.0
2455.0
2467.0
2427.0
2534.0
2534.0
2410.0
2423.0
2414.0
2503.0
2451.0
2399.0
2422.0
2427.0
2499.0
2407.0
2386.0
2483.0
2375.0
2475.0
2459.0
2422.0
2347.0
2351.0
2454.0
2355.0
2391.0
2334.0
2371.0
2331.0
2418.0
2330.0
2327.0
2415.0
2335.0
2395.0
2302.0
2287.0
2399.0
2382.0
2302.0
2311.0
2351.0
2314.0
2354.0
2259.0
2283.0
2347.0
2230.0
2347.0
2311.0
2295.0
2326.0
2211.0
2335.0
2231.0
2303.0
2199.0
2224.0
2314.0
2211.0
2283.0
2182.0
2188.0
2222.0
2287.0
2243.0
2231.0
2239.0
2243.0
2167.0
2267.0
2214.0
2266.0
2247.0
2143.0
2239.0
2223.0
2218.0
2206.0
2131.0
2171.0
2227.0
2118.0
2134.0
2214.0
2182.0
2107.0
2134.0
2106.0
2098.0
2203.0
2147.0
2142.0
2146.0
2095.0
2143.0
2179.0
2075.0
2170.0
2146.0
2115.0
2167.0
2063.0
2110.0
2110.0
2075.0
2043.0
2067.0
2027.0
2114.0
2154.0
2128.0
2115.0
2031.0
2054.0
2131.0
2135.0
2122.0
2067.0
2044.0
2015.0
2103.0
2099.0
2026.0
2087.0
2066.0
1991.0
1987.0
2007.0
2098.0
2019.0
2038.0
2051.0
2016.0
2047.0
2011.0
2074.0
2023.0
1995.0
1970.0
2043.0
1970.0
1959.0
2059.0
2031.0
1939.0
1954.0
1943.0
2047.0
2022.0
2011.0
1930.0
2003.0
1939.0
2038.0
1978.0
1935.0
2019.0
1942.0
1939.0
1980.0
2026.0
2011.0
2014.0
1926.0
2015.0
1894.0
1991.0
1962.0
2003.0
1955.0
1934.0
1995.0
1910.0
1959.0
1899.0
1939.0
1947.0
1935.0
1875.0
1991.0
1984.0
1895.0
1923.0
1987.0
1918.0
1903.0
1931.0
1919.0
1959.0
1882.0
1943.0
1895.0
1867.0
1915.0
1927.0
1982.0
1898.0
1899.0
1886.0
1927.0
1863.0
1871.0
1904.0
1887.0
1907.0
1874.0
1939.0
1898.0
1895.0
1874.0
1865.0
1859.0
1859.0
1867.0
1839.0
1946.0
1939.0
1875.0
1922.0
1850.0
1894.0
1939.0
1858.0
1879.0
1854.0
1886.0
1880.0
1907.0
1830.0
1914.0
1865.0
1866.0
1923.0
1891.0
1931.0
1883.0
1863.0
1903.0
1819.0
1882.0
1906.0
1863.0
1870.0
1874.0
1910.0
1798.0
1807.0
1879.0
1883.0
1790.0
1891.0
1786.0
1895.0
1791.0
1790.0
1782.0
1878.0
1895.0
1791.0
1808.0
1819.0
1775.0
1831.0
1779.0
1847.0
1767.0
1770.0
1802.0
1766.0
1867.0
1791.0
1823.0
1827.0
1863.0
1763.0
1875.0
1754.0
1763.0
1774.0
1791.0
1767.0
1855.0
1830.0
1790.0
1782.0
1810.0
1767.0
1751.0
1851.0
1771.0
1767.0
1827.0
1842.0
1806.0
1758.0
1859.0
1754.0
1798.0
1810.0
1850.0
1754.0
1786.0
1794.0
1839.0
1846.0
1855.0
1859.0
1854.0
1771.0
1754.0
1758.0
1759.0
1807.0
1754.0
1848.0
1834.0
1751.0
1871.0
1810.0
1763.0
1779.0
1775.0
1790.0
1879.0
1843.0
1798.0
1903.0
1915.0
1923.0
1843.0
1854.0
1854.0
1979.0
1979.0
1983.0
1962.0
2040.0
1968.0
2007.0
2019.0
2130.0
2127.0
2139.0
2196.0
2231.0
2251.0
2169.0
2299.0
2227.0
2242.0
2294.0
2299.0
2443.0
2442.0
2499.0
2495.0
2475.0
2598.0
2614.0
2643.0
2606.0
2646.0
2703.0
2743.0
2791.0
2750.0
2851.0
2795.0
2883.0
2954.0
2894.0
2962.0
2950.0
3007.0
3091.0
3027.0
3151.0
3103.0
3115.0
3242.0
3178.0
3262.0
3218.0
3339.0
3363.0
3303.0
3383.0
3423.0
3374.0
3390.0
3454.0
3411.0
3530.0
3479.0
3571.0
3475.0
3534.0
3583.0
3631.0
3642.0
3551.0
3659.0
3675.0
3586.0
3623.0
3703.0
3619.0
3695.0
3639.0
3755.0
3679.0
3671.0
3667.0
3723.0
3775.0
3795.0
3707.0
3747.0
3751.0
3719.0
3763.0
3767.0
3707.0
3711.0
3799.0
3791.0
3775.0
3827.0
3823.0
3752.0
3738.0
3723.0
3787.0
3795.0
3811.0
3771.0
3715.0
3734.0
3710.0
3802.0
3750.0
3695.0
3771.0
3735.0
3747.0
3802.0
3691.0
3743.0
3750.0
3727.0
3675.0
3695.0
3698.0
3775.0
3662.0
3727.0
3739.0
3659.0
3735.0
3699.0
3643.0
3703.0
3700.0
3675.0
3679.0
3663.0
3734.0
3731.0
3620.0
3619.0
3654.0
3619.0
3610.0
3630.0
3619.0
3682.0
3611.0
3595.0
3695.0
3635.0
3680.0
3583.0
3602.0
3579.0
3579.0
3598.0
3647.0
3563.0
3631.0
3651.0
3655.0
3619.0
3570.0
3591.0
3543.0
3627.0
3643.0
3607.0
3539.0
3535.0
3547.0
3619.0
3627.0
3587.0
3542.0
3519.0
3623.0
3571.0
3599.0
3627.0
3595.0
3523.0
3546.0
3551.0
3515.0
3491.0
3563.0
3487.0
3543.0
3547.0
3471.0
3559.0
3538.0
3454.0
3499.0
3475.0
3551.0
3454.0
3479.0
3467.0
3518.0
3426.0
3474.0
3523.0
3491.0
3399.0
3464.0
3431.0
3371.0
3475.0
3410.0
3451.0
3375.0
3387.0
3355.0
3342.0
3346.0
3382.0
3398.0
3338.0
3374.0
3342.0
3331.0
3367.0
3270.0
3374.0
3366.0
3351.0
3238.0
3290.0
3238.0
3259.0
3196.0
3178.0
3247.0
3167.0
3182.0
3167.0
3250.0
3198.0
3138.0
3119.0
3127.0
3083.0
3123.0
3059.0
3163.0
3067.0
3103.0
3023.0
3103.0
3075.0
3098.0
2983.0
3014.0
3059.0
2947.0
2995.0
3030.0
2927.0
2954.0
2986.0
2990.0
3003.0
2939.0
2902.0
2899.0
2951.0
2903.0
2846.0
2862.0
2847.0
2851.0
2930.0
2898.0
2926.0
2883.0
2831.0
2815.0
2847.0
2895.0
2835.0
2838.0
2787.0
2871.0
2818.0
2862.0
2770.0
2763.0
2746.0
2823.0
2843.0
2738.0
2747.0
2839.0
2811.0
2785.0
2763.0
2782.0
2739.0
2811.0
2815.0
2723.0
2711.0
2763.0
2703.0
2758.0
2799.0
2762.0
2783.0
2711.0
2791.0
2702.0
2791.0
2790.0
2695.0
2750.0
2718.0
2702.0
2679.0
2711.0
2767.0
2727.0
2758.0
2683.0
2654.0
2715.0
2760.0
2655.0
2731.0
2659.0
2668.0
2766.0
2666.0
2768.0
2683.0
2643.0
2707.0
2655.0
2694.0
2666.0
2646.0
2735.0
2751.0
2703.0
2739.0
2619.0
2734.0
2623.0
2659.0
2667.0
2702.0
2631.0
2614.0
2726.0
2711.0
2671.0
2583.0
2607.0
2590.0
2643.0
2683.0
2574.0
2607.0
2607.0
2567.0
2626.0
2571.0
2583.0
2591.0
2647.0
2547.0
2539.0
2559.0
2611.0
2627.0
2579.0
2550.0
2549.0
2627.0
2511.0
2551.0
2523.0
2551.0
2555.0
2491.0
2547.0
2542.0
2559.0
2466.0
2470.0
2567.0
2463.0
2467.0
2467.0
2559.0
2439.0
2482.0
2466.0
2483.0
2431.0
2459.0
2422.0
2419.0
2415.0
2483.0
2438.0
2411.0
2486.0
2454.0
2495.0
2387.0
2486.0
2379.0
2379.0
2371.0
2355.0
2371.0
2359.0
2350.0
2359.0
2375.0
2339.0
2338.0
2315.0
2342.0
2434.0
2414.0
2366.0
2371.0
2367.0
2355.0
2307.0
2390.0
2350.0
2335.0
2343.0
2298.0
2338.0
2288.0
2279.0
2286.0
2384.0
2342.0
2339.0
2267.0
2351.0
2335.0
2251.0
2350.0
2231.0
2239.0
2323.0
2235.0
2226.0
2254.0
2235.0
2266.0
2263.0
2211.0
2212.0
2235.0
2187.0
2290.0
2211.0
2287.0
2194.0
2298.0
2234.0
2187.0
2179.0
2203.0
2267.0
2178.0
2246.0
2262.0
2255.0
2214.0
2182.0
2214.0
2159.0
2211.0
2179.0
2215.0
2142.0
2126.0
2139.0
2119.0
2211.0
2198.0
2215.0
2215.0
2103.0
2203.0
2151.0
2110.0
2170.0
2099.0
2142.0
2091.0
2099.0
2123.0
2098.0
2110.0
2087.0
2083.0
2087.0
2167.0
2083.0
2078.0
2067.0
2107.0
2064.0
2063.0
2058.0
2150.0
2151.0
2047.0
2043.0
2154.0
2042.0
2055.0
2151.0
2146.0
2131.0
2042.0
2042.0
2123.0
2094.0
2090.0
2086.0
2138.0
2143.0
2059.0
2119.0
2071.0
2135.0
2115.0
2047.0
2054.0
2042.0
2051.0
2079.0
2115.0
2123.0
2107.0
2051.0
2071.0
2067.0
2018.0
2007.0
2003.0
2063.0
2006.0
2079.0
2020.0
2062.0
2010.0
2067.0
1995.0
1998.0
2082.0
2000.0
2103.0
2003.0
2078.0
2087.0
2083.0
1987.0
1991.0
2050.0
2035.0
1986.0
1983.0
1982.0
2018.0
2071.0
2003.0
2022.0
2091.0
1983.0
2003.0
2062.0
2027.0
2078.0
2033.0
2043.0
2035.0
2007.0
1962.0
2071.0
2056.0
1963.0
2018.0
2014.0
2063.0
2003.0
1967.0
1987.0
1951.0
1947.0
1959.0
1982.0
2047.0
1951.0
1971.0
1996.0
2046.0
2022.0
1942.0
1951.0
1979.0
2019.0
2050.0
2035.0
2042.0
1963.0
1963.0
2039.0
2027.0
1942.0
2003.0
2026.0
2034.0
2008.0
2018.0
2019.0
1974.0
1923.0
1914.0
1920.0
1922.0
1979.0
2002.0
1999.0
1886.0
1883.0
1919.0
1922.0
1890.0
1910.0
1886.0
2003.0
1978.0
1947.0
1983.0
1986.0
1966.0
1963.0
1983.0
1975.0
1895.0
1955.0
1918.0
1891.0
1860.0
1943.0
1927.0
1854.0
1866.0
1851.0
1926.0
1959.0
1846.0
1939.0
1875.0
1934.0
1839.0
1922.0
1851.0
1830.0
1934.0
1934.0
1826.0
1897.0
1923.0
1887.0
1835.0
1831.0
1912.0
1843.0
1934.0
1823.0
1818.0
1867.0
1811.0
1902.0
1859.0
1875.0
1878.0
1931.0
1911.0
1934.0
1879.0
1875.0
1927.0
1899.0
1959.0
1891.0
1907.0
1844.0
1919.0
1891.0
1879.0
1878.0
1967.0
1923.0
1943.0
1983.0
2019.0
1951.0
2010.0
2066.0
2038.0
2031.0
2063.0
2018.0
2064.0
2163.0
2103.0
2207.0
2150.0
2230.0
2191.0
2299.0
2267.0
2267.0
2355.0
2391.0
2343.0
2366.0
2463.0
2478.0
2455.0
2467.0
2519.0
2610.0
2566.0
2691.0
2674.0
2651.0
2763.0
2728.0
2743.0
2883.0
2803.0
2882.0
2859.0
2934.0
3000.0
2951.0
3058.0
3055.0
3115.0
3166.0
3095.0
3122.0
3215.0
3178.0
3203.0
3211.0
3326.0
3335.0
3343.0
3402.0
3434.0
3447.0
3387.0
3471.0
3419.0
3491.0
3458.0
3530.0
3472.0
3563.0
3591.0
3607.0
3567.0
3583.0
3619.0
3642.0
3659.0
3591.0
3619.0
3723.0
3723.0
3639.0
3647.0
3726.0
3687.0
3690.0
3679.0
3679.0
3671.0
3719.0
3695.0
3695.0
3802.0
3802.0
3778.0
3771.0
3758.0
3747.0
3718.0
3819.0
3795.0
3770.0
3738.0
3799.0
3811.0
3723.0
3763.0
3759.0
3771.0
3735.0
3695.0
3771.0
3731.0
3777.0
3691.0
3742.0
3727.0
3675.0
3791.0
3671.0
3782.0
3667.0
3775.0
3758.0
3747.0
3659.0
3667.0
3715.0
3702.0
3690.0
3623.0
3715.0
3687.0
3634.0
3607.0
3706.0
3663.0
3698.0
3699.0
3703.0
3703.0
3607.0
3683.0
3611.0
3650.0
3587.0
3595.0
3595.0
3675.0
3627.0
3679.0
3603.0
3555.0
3535.0
3639.0
3635.0
3615.0
3531.0
3603.0
3619.0
3555.0
3538.0
3543.0
3590.0
3611.0
3518.0
3507.0
3614.0
3522.0
3619.0
3542.0
3571.0
3483.0
3570.0
3547.0
3579.0
3471.0
3559.0
3555.0
3562.0
3555.0
3495.0
3539.0
3511.0
3467.0
3519.0
3458.0
3554.0
3443.0
3431.0
3434.0
3531.0
3522.0
3441.0
3442.0
3522.0
3503.0
3479.0
3502.0
3399.0
3439.0
3463.0
3383.0
3447.0
3474.0
3468.0
3439.0
3427.0
3434.0
3443.0
3403.0
3319.0
3354.0
3403.0
3303.0
3402.0
3354.0
3362.0
3343.0
3339.0
3323.0
3347.0
3275.0
3359.0
3290.0
3280.0
3291.0
3263.0
3303.0
3231.0
3211.0
3187.0
3167.0
3239.0
3219.0
3219.0
3227.0
3151.0
3103.0
3203.0
3191.0
3171.0
3159.0
3051.0
3083.0
3120.0
3023.0
3135.0
3107.0
3095.0
3059.0
3071.0
3047.0
2991.0
3054.0
2990.0
3010.0
2935.0
2918.0
3003.0
2898.0
2967.0
2914.0
2895.0
2851.0
2858.0
2959.0
2842.0
2867.0
2931.0
2835.0
2883.0
2811.0
2812.0
2787.0
2859.0
2874.0
2775.0
2771.0
2779.0
2763.0
2783.0
2759.0
2771.0
2824.0
2770.0
2835.0
2854.0
2755.0
