2947.0
2903.0
2939.0
2995.0
2887.0
2890.0
2954.0
2971.0
2899.0
2882.0
2866.0
2842.0
2863.0
2886.0
2831.0
2822.0
2838.0
2827.0
2810.0
2826.0
2835.0
2867.0
2798.0
2763.0
2823.0
2759.0
2839.0
2763.0
2843.0
2784.0
2815.0
2750.0
2760.0
2766.0
2746.0
2711.0
2711.0
2679.0
2791.0
2663.0
2654.0
2720.0
2655.0
2627.0
2634.0
2690.0
2718.0
2707.0
2615.0
2675.0
2695.0
2627.0
2615.0
2698.0
2719.0
2687.0
2646.0
2671.0
2674.0
2558.0
2555.0
2606.0
2623.0
2622.0
2547.0
2614.0
2539.0
2627.0
2654.0
2523.0
2531.0
2631.0
2555.0
2574.0
2591.0
2611.0
2570.0
2555.0
2563.0
2563.0
2630.0
2523.0
2563.0
2518.0
2535.0
2519.0
2519.0
2539.0
2623.0
2615.0
2567.0
2507.0
2515.0
2623.0
2523.0
2619.0
2579.0
2558.0
2515.0
2551.0
2628.0
2539.0
2547.0
2542.0
2535.0
2544.0
2607.0
2622.0
2631.0
2602.0
2651.0
2538.0
2583.0
2618.0
2547.0
2551.0
2574.0
2655.0
2552.0
2603.0
2554.0
2595.0
2627.0
2550.0
2579.0
2670.0
2555.0
2623.0
2594.0
2595.0
2619.0
2671.0
2686.0
2642.0
2674.0
2638.0
2619.0
2704.0
2714.0
2615.0
2603.0
2591.0
2602.0
2680.0
2619.0
2599.0
2703.0
2710.0
2599.0
2603.0
2623.0
2655.0
2664.0
2707.0
2695.0
2683.0
2607.0
2603.0
2611.0
2659.0
2706.0
2658.0
2671.0
2611.0
2610.0
2586.0
2674.0
2647.0
2606.0
2699.0
2710.0
2690.0
2576.0
2603.0
2582.0
2631.0
2579.0
2678.0
2579.0
2546.0
2639.0
2550.0
2647.0
2610.0
2655.0
2558.0
2654.0
2531.0
2654.0
2648.0
2618.0
2602.0
2622.0
2639.0
2543.0
2627.0
2503.0
2512.0
2498.0
2586.0
2499.0
2603.0
2555.0
2554.0
2566.0
2478.0
2464.0
2567.0
2570.0
2459.0
2526.0
2543.0
2527.0
2527.0
2478.0
2543.0
2435.0
2463.0
2442.0
2507.0
2527.0
2419.0
2418.0
2495.0
2490.0
2470.0
2438.0
2386.0
2415.0
2407.0
2390.0
2379.0
2383.0
2446.0
2446.0
2383.0
2366.0
2363.0
2423.0
2359.0
2326.0
2427.0
2399.0
2419.0
2403.0
2403.0
2311.0
2371.0
2383.0
2415.0
2352.0
2303.0
2311.0
2302.0
2310.0
2306.0
2298.0
2331.0
2266.0
2359.0
2283.0
2343.0
2270.0
2287.0
2275.0
2351.0
2359.0
2279.0
2256.0
2337.0
2239.0
2294.0
2250.0
2282.0
2290.0
2290.0
2230.0
2299.0
2219.0
2251.0
2263.0
2239.0
2243.0
2223.0
2228.0
2211.0
2291.0
2295.0
2291.0
2187.0
2287.0
2253.0
2191.0
2299.0
2199.0
2187.0
2166.0
2278.0
2291.0
2271.0
2203.0
2222.0
2231.0
2268.0
2203.0
2182.0
2241.0
2238.0
2246.0
2255.0
2191.0
2239.0
2166.0
2147.0
2194.0
2255.0
2234.0
2182.0
2239.0
2235.0
2118.0
2210.0
2142.0
2171.0
2223.0
2211.0
2198.0
2219.0
2219.0
2227.0
2179.0
2191.0
2118.0
2154.0
2116.0
2186.0
2118.0
2162.0
2216.0
2195.0
2207.0
2082.0
2103.0
2152.0
2195.0
2090.0
2147.0
2182.0
2095.0
2198.0
2151.0
2198.0
2123.0
2147.0
2211.0
2207.0
2091.0
2200.0
2200.0
2199.0
2190.0
2131.0
2080.0
2083.0
2143.0
2154.0
2090.0
2106.0
2207.0
2163.0
2175.0
2091.0
2194.0
2123.0
2083.0
2083.0
2191.0
2169.0
2186.0
2146.0
2083.0
2070.0
2088.0
2140.0
2182.0
2111.0
2079.0
2099.0
2074.0
2071.0
2139.0
2098.0
2086.0
2163.0
2191.0
2091.0
2175.0
2107.0
2163.0
2070.0
2123.0
2119.0
2123.0
2066.0
2171.0
2083.0
2078.0
2063.0
2103.0
2151.0
2075.0
2155.0
2179.0
2070.0
2122.0
2115.0
2183.0
2095.0
2075.0
2107.0
2179.0
2163.0
2142.0
2170.0
2175.0
2174.0
2078.0
2087.0
2151.0
2054.0
2143.0
2123.0
2175.0
2106.0
2151.0
2147.0
2079.0
2167.0
2067.0
2162.0
2154.0
2178.0
2119.0
2091.0
2095.0
2136.0
2183.0
2075.0
2190.0
2155.0
2180.0
2103.0
2146.0
2167.0
2158.0
2191.0
2207.0
2115.0
2238.0
2130.0
2239.0
2223.0
2142.0
2222.0
2179.0
2182.0
2314.0
2279.0
2275.0
2358.0
2375.0
2383.0
2423.0
2331.0
2459.0
2387.0
2383.0
2409.0
2423.0
2554.0
2458.0
2462.0
2611.0
2595.0
2582.0
2623.0
2699.0
2623.0
2719.0
2678.0
2823.0
2775.0
2767.0
2899.0
2806.0
2830.0
2942.0
2903.0
2979.0
3026.0
3042.0
3051.0
3039.0
3030.0
3143.0
3170.0
3091.0
3191.0
3255.0
3155.0
3174.0
3207.0
3291.0
3339.0
3278.0
3383.0
3338.0
3323.0
3387.0
3367.0
3387.0
3389.0
3431.0
3435.0
3548.0
3438.0
3470.0
3555.0
3483.0
3507.0
3570.0
3522.0
3654.0
3614.0
3599.0
3591.0
3682.0
3591.0
3622.0
3602.0
3663.0
3614.0
3607.0
3623.0
3626.0
3634.0
3642.0
3746.0
3690.0
3751.0
3723.0
3731.0
3759.0
3783.0
3759.0
3671.0
3719.0
3771.0
3727.0
3707.0
3651.0
3711.0
3662.0
3635.0
3711.0
3647.0
3635.0
3731.0
3739.0
3655.0
3655.0
3663.0
3642.0
3642.0
3627.0
3615.0
3718.0
3703.0
3614.0
3583.0
3593.0
3571.0
3639.0
3675.0
3547.0
3663.0
3622.0
3546.0
3531.0
3643.0
3511.0
3614.0
3518.0
3547.0
3587.0
3527.0
3496.0
3571.0
3568.0
3559.0
3551.0
3427.0
3507.0
3411.0
3511.0
3443.0
3498.0
3400.0
3432.0
3386.0
3398.0
3414.0
3467.0
3451.0
3446.0
3367.0
3326.0
3307.0
3326.0
3294.0
3335.0
3322.0
3275.0
3295.0
3315.0
3307.0
3228.0
3223.0
3335.0
3227.0
3324.0
3267.0
3291.0
3246.0
3207.0
3263.0
3163.0
3275.0
3166.0
3251.0
3266.0
3143.0
3115.0
3183.0
3147.0
3107.0
3179.0
3162.0
3103.0
3195.0
3151.0
3150.0
3078.0
3099.0
3155.0
3059.0
3039.0
3063.0
3142.0
3094.0
3119.0
3055.0
2995.0
3034.0
3103.0
3082.0
2979.0
3086.0
2983.0
3067.0
2979.0
3002.0
3007.0
3063.0
3026.0
2951.0
2926.0
2947.0
2911.0
2987.0
2919.0
2998.0
2894.0
2887.0
2967.0
2870.0
2875.0
2883.0
2954.0
2847.0
2943.0
2831.0
2866.0
2815.0
2827.0
2871.0
2795.0
2783.0
2786.0
2839.0
2743.0
2770.0
2791.0
2791.0
2731.0
2787.0
2827.0
2779.0
2719.0
2722.0
2791.0
2755.0
2755.0
2679.0
2670.0
2761.0
2767.0
2647.0
2750.0
2647.0
2631.0
2631.0
2726.0
2730.0
2687.0
2611.0
2607.0
2623.0
2671.0
2662.0
2683.0
2686.0
2711.0
2646.0
2598.0
2690.0
2606.0
2615.0
2607.0
2687.0
2635.0
2658.0
2679.0
2595.0
2578.0
2591.0
2615.0
2591.0
2570.0
2671.0
2575.0
2634.0
2571.0
2579.0
2586.0
2639.0
2583.0
2563.0
2594.0
2567.0
2562.0
2566.0
2647.0
2583.0
2582.0
2602.0
2583.0
2674.0
2662.0
2595.0
2695.0
2595.0
2707.0
2606.0
2598.0
2686.0
2607.0
2587.0
2710.0
2666.0
2607.0
2627.0
2643.0
2694.0
2587.0
2719.0
2694.0
2631.0
2738.0
2679.0
2671.0
2687.0
2671.0
2680.0
2666.0
2702.0
2707.0
2671.0
2710.0
2619.0
2626.0
2734.0
2631.0
2722.0
2727.0
2695.0
2666.0
2647.0
2698.0
2694.0
2696.0
2632.0
2671.0
2714.0
2715.0
2734.0
2651.0
2635.0
2735.0
2607.0
2707.0
2606.0
2606.0
2715.0
2662.0
2638.0
2674.0
2639.0
2675.0
2615.0
2607.0
2719.0
2727.0
2714.0
2690.0
2608.0
2610.0
2599.0
2703.0
2579.0
2643.0
2643.0
2655.0
2670.0
2691.0
2683.0
2579.0
2611.0
2634.0
2599.0
2611.0
2659.0
2631.0
2682.0
2671.0
2587.0
2538.0
2535.0
2546.0
2559.0
2559.0
2530.0
2535.0
2574.0
2619.0
2523.0
2607.0
2506.0
2591.0
2586.0
2507.0
2514.0
2594.0
2595.0
2587.0
2591.0
2483.0
2534.0
2503.0
2456.0
2440.0
2439.0
2479.0
2499.0
2526.0
2474.0
2427.0
2459.0
2459.0
2491.0
2529.0
2459.0
2403.0
2527.0
2427.0
2418.0
2503.0
2396.0
2463.0
2455.0
2447.0
2358.0
2362.0
2400.0
2466.0
2447.0
2463.0
2462.0
2367.0
2398.0
2350.0
2379.0
2443.0
2342.0
2447.0
2334.0
2386.0
2320.0
2332.0
2310.0
2395.0
2366.0
2315.0
2399.0
2320.0
2298.0
2395.0
2411.0
2299.0
2287.0
2379.0
2287.0
2386.0
2358.0
2322.0
2351.0
2270.0
2354.0
2247.0
2246.0
2339.0
2246.0
2318.0
2244.0
2223.0
2227.0
2279.0
2231.0
2342.0
2335.0
2310.0
2227.0
2223.0
2247.0
2266.0
2231.0
2255.0
2251.0
2271.0
2242.0
2222.0
2235.0
2183.0
2270.0
2215.0
2175.0
2218.0
2270.0
2198.0
2183.0
2179.0
2295.0
2179.0
2172.0
2171.0
2255.0
2186.0
2242.0
2162.0
2159.0
2148.0
2198.0
2135.0
2263.0
2147.0
2223.0
2195.0
2135.0
2142.0
2147.0
2203.0
2146.0
2131.0
2214.0
2263.0
2175.0
2175.0
2187.0
2223.0
2163.0
2127.0
2152.0
2145.0
2175.0
2214.0
2124.0
2122.0
2167.0
2251.0
2238.0
2128.0
2227.0
2143.0
2148.0
2119.0
2219.0
2114.0
2103.0
2102.0
2202.0
2078.0
2167.0
2115.0
2087.0
2170.0
2099.0
2127.0
2127.0
2214.0
2199.0
2095.0
2146.0
2183.0
2102.0
2203.0
2211.0
2088.0
2134.0
2192.0
2079.0
2079.0
2159.0
2163.0
2082.0
2159.0
2075.0
2122.0
2111.0
2154.0
2119.0
2199.0
2134.0
2154.0
2100.0
2151.0
2104.0
2162.0
2123.0
2070.0
2074.0
2098.0
2122.0
2147.0
2075.0
2175.0
2086.0
2078.0
2187.0
2194.0
2091.0
2114.0
2166.0
2163.0
2203.0
2190.0
2151.0
2063.0
2074.0
2104.0
2127.0
2126.0
2087.0
2075.0
2160.0
2070.0
2115.0
2131.0
2067.0
2070.0
2095.0
2179.0
2187.0
2146.0
2151.0
2110.0
2059.0
2063.0
2150.0
2162.0
2171.0
2047.0
2116.0
2122.0
2047.0
2072.0
2059.0
2090.0
2167.0
2183.0
2174.0
2130.0
2159.0
2154.0
2183.0
2110.0
2098.0
2154.0
2163.0
2064.0
2114.0
2103.0
2059.0
2071.0
2147.0
2107.0
2195.0
2178.0
2201.0
2098.0
2111.0
2115.0
2207.0
2215.0
2190.0
2243.0
2215.0
2206.0
2275.0
2178.0
2258.0
2219.0
2295.0
2215.0
2342.0
2311.0
2383.0
2403.0
2355.0
2334.0
2367.0
2407.0
2403.0
2445.0
2511.0
2535.0
2558.0
2614.0
2611.0
2646.0
2670.0
2590.0
2690.0
2738.0
2670.0
2690.0
2799.0
2840.0
2835.0
2803.0
2867.0
2871.0
2918.0
3011.0
2914.0
3038.0
3025.0
2990.0
3050.0
3120.0
3039.0
3119.0
3079.0
3186.0
3251.0
3222.0
3258.0
3327.0
3303.0
3302.0
3283.0
3402.0
3335.0
3367.0
3347.0
3443.0
3367.0
3423.0
3411.0
3511.0
3499.0
3566.0
3486.0
3587.0
3523.0
3626.0
3551.0
3591.0
3563.0
3616.0
3623.0
3671.0
3719.0
3603.0
3619.0
3691.0
3695.0
3623.0
3627.0
3743.0
3631.0
3754.0
3638.0
3695.0
3695.0
3706.0
3714.0
3675.0
3723.0
3679.0
3703.0
3787.0
3762.0
3755.0
3699.0
3670.0
3664.0
3747.0
3743.0
3763.0
3662.0
3703.0
3651.0
3646.0
3747.0
3695.0
3714.0
3654.0
3631.0
3727.0
3671.0
3699.0
3707.0
3683.0
3671.0
3678.0
3690.0
3574.0
3607.0
3679.0
3543.0
3519.0
3623.0
3522.0
3510.0
3622.0
3614.0
3535.0
3526.0
3491.0
3582.0
3483.0
3558.0
3559.0
3543.0
3551.0
3514.0
3422.0
3411.0
3454.0
3447.0
3382.0
3371.0
3367.0
3454.0
3422.0
3459.0
3414.0
3415.0
3454.0
3407.0
3363.0
3344.0
3326.0
3303.0
3334.0
3303.0
3294.0
3350.0
3246.0
3291.0
3343.0
3254.0
3211.0
3263.0
3218.0
3211.0
3211.0
3179.0
3291.0
3207.0
3176.0
3267.0
3175.0
3139.0
3142.0
3135.0
3210.0
3187.0
3194.0
3139.0
3088.0
3178.0
3083.0
3123.0
3143.0
3087.0
3162.0
3063.0
3168.0
3163.0
3107.0
3131.0
3071.0
3110.0
3039.0
3099.0
2999.0
3011.0
3015.0
2990.0
3066.0
2967.0
2975.0
2986.0
3066.0
2958.0
3054.0
3066.0
2975.0
2963.0
3035.0
3034.0
2939.0
2923.0
2894.0
2995.0
2994.0
2963.0
2982.0
2883.0
2923.0
2950.0
2855.0
2850.0
2943.0
2935.0
2814.0
2827.0
2799.0
2810.0
2832.0
2879.0
2786.0
2778.0
2787.0
2798.0
2750.0
2787.0
2735.0
2739.0
2831.0
2763.0
2730.0
2827.0
2791.0
2695.0
2799.0
2784.0
2691.0
2755.0
2787.0
2767.0
2695.0
2719.0
2775.0
2663.0
2675.0
2647.0
2734.0
2679.0
2654.0
2643.0
2707.0
2623.0
2618.0
2627.0
2691.0
2631.0
2707.0
2727.0
2623.0
2630.0
2723.0
2710.0
2607.0
2619.0
2627.0
2710.0
2595.0
2701.0
2607.0
2622.0
2659.0
2590.0
2599.0
2687.0
2687.0
2591.0
2655.0
2623.0
2715.0
2679.0
2602.0
2715.0
2639.0
2608.0
2598.0
2699.0
2594.0
2699.0
2679.0
2678.0
2659.0
2619.0
2638.0
2655.0
2627.0
2730.0
2651.0
2711.0
2651.0
2659.0
2735.0
2634.0
2751.0
2670.0
2634.0
2743.0
2643.0
2623.0
2635.0
2679.0
2631.0
2747.0
2655.0
2750.0
2663.0
2651.0
2691.0
2755.0
2659.0
2659.0
2776.0
2687.0
2751.0
2763.0
2715.0
2738.0
2695.0
2699.0
2771.0
2699.0
2735.0
2659.0
2759.0
2682.0
2683.0
2707.0
2683.0
2683.0
2771.0
2710.0
2670.0
2758.0
2743.0
2655.0
2655.0
2707.0
2711.0
2634.0
2647.0
2642.0
2651.0
2663.0
2674.0
2698.0
2670.0
2679.0
2646.0
2651.0
2739.0
2647.0
2675.0
2626.0
2707.0
2655.0
2614.0
2684.0
2606.0
2651.0
2683.0
2579.0
2679.0
2647.0
2575.0
2578.0
2650.0
2635.0
2579.0
2602.0
2583.0
2607.0
2594.0
2579.0
2619.0
2574.0
2534.0
2622.0
2523.0
2570.0
2543.0
2539.0
2591.0
2598.0
2547.0
2499.0
2543.0
2515.0
2526.0
2599.0
2490.0
2527.0
2559.0
2494.0
2530.0
2567.0
2543.0
2555.0
2530.0
2512.0
2439.0
2427.0
2527.0
2439.0
2463.0
2410.0
2503.0
2511.0
2483.0
2498.0
2403.0
2399.0
2411.0
2499.0
2439.0
2486.0
2483.0
2411.0
2448.0
2366.0
2439.0
2399.0
2455.0
2372.0
2399.0
2363.0
2375.0
2451.0
2454.0
2335.0
2411.0
2315.0
2355.0
2335.0
2319.0
2331.0
2351.0
2355.0
2294.0
2291.0
2282.0
2347.0
2331.0
2322.0
2290.0
2374.0
2287.0
2263.0
2359.0
2259.0
2359.0
2367.0
2355.0
2347.0
2298.0
2223.0
2238.0
2319.0
2226.0
2235.0
2219.0
2314.0
2211.0
2206.0
2294.0
2194.0
2231.0
2198.0
2199.0
2315.0
2186.0
2274.0
2183.0
2219.0
2279.0
2183.0
2246.0
2183.0
2170.0
2259.0
2147.0
2251.0
2235.0
2155.0
2207.0
2224.0
2231.0
2247.0
2251.0
2195.0
2259.0
2207.0
2143.0
2162.0
2239.0
2216.0
2142.0
2177.0
2222.0
2111.0
2107.0
2182.0
2163.0
2110.0
2122.0
2103.0
2098.0
2114.0
2184.0
2099.0
2103.0
2096.0
2155.0
2203.0
2174.0
2175.0
2107.0
2147.0
2067.0
2174.0
2075.0
2079.0
2107.0
2110.0
2075.0
2074.0
2139.0
2163.0
2143.0
2134.0
2155.0
2143.0
2138.0
2110.0
2143.0
2058.0
2103.0
2151.0
2042.0
2086.0
2150.0
2151.0
2106.0
2066.0
2114.0
2119.0
2115.0
2043.0
2059.0
2147.0
2059.0
2095.0
2099.0
2047.0
2027.0
2139.0
2139.0
2023.0
2109.0
2083.0
2022.0
2040.0
2047.0
2134.0
2027.0
2143.0
2047.0
2035.0
2151.0
2114.0
2043.0
2110.0
2043.0
2054.0
2099.0
2098.0
2027.0
2130.0
2118.0
2082.0
2055.0
2118.0
2111.0
2010.0
2134.0
2079.0
2120.0
2091.0
2036.0
2135.0
2030.0
2136.0
2055.0
2042.0
2122.0
2095.0
2091.0
2059.0
2100.0
2023.0
2131.0
2018.0
2023.0
2098.0
2058.0
2022.0
2090.0
2022.0
2142.0
2087.0
2064.0
2139.0
2031.0
2078.0
2067.0
2035.0
2119.0
2123.0
2066.0
2119.0
2047.0
2022.0
2090.0
2111.0
2122.0
2011.0
2099.0
2127.0
2026.0
2123.0
2118.0
2127.0
2131.0
2015.0
2110.0
2002.0
2007.0
2074.0
2006.0
2011.0
2006.0
2012.0
2099.0
2003.0
2111.0
2086.0
2015.0
2018.0
2067.0
2098.0
2115.0
2103.0
2002.0
2015.0
2034.0
2034.0
1999.0
1988.0
2099.0
2038.0
2023.0
2075.0
2106.0
2083.0
2035.0
2123.0
2095.0
2072.0
2130.0
2070.0
2072.0
2107.0
2130.0
2091.0
2055.0
2023.0
2051.0
2031.0
2098.0
2046.0
2171.0
2083.0
2082.0
2187.0
2139.0
2223.0
2238.0
2168.0
2182.0
2167.0
2286.0
2203.0
2335.0
2250.0
2351.0
2271.0
2259.0
2306.0
2417.0
2430.0
2427.0
2462.0
2443.0
2423.0
2539.0
2587.0
2550.0
2639.0
2555.0
2611.0
2715.0
2711.0
2763.0
2786.0
2815.0
2743.0
2775.0
2882.0
2875.0
2875.0
2963.0
2867.0
3010.0
2914.0
3047.0
3071.0
3079.0
3079.0
3163.0
3174.0
3111.0
3222.0
3239.0
3215.0
3270.0
3280.0
3207.0
3290.0
3259.0
3278.0
3287.0
3359.0
3331.0
3432.0
3434.0
3479.0
3398.0
3518.0
3506.0
3455.0
3467.0
3495.0
3539.0
3519.0
3526.0
3591.0
3619.0
3627.0
3658.0
3583.0
3671.0
3627.0
3631.0
3703.0
3635.0
3671.0
3731.0
3738.0
3695.0
3642.0
3731.0
3747.0
3743.0
3640.0
3691.0
3731.0
3750.0
3627.0
3746.0
3686.0
3627.0
3734.0
3727.0
3699.0
3706.0
3743.0
3655.0
3735.0
3662.0
3666.0
3711.0
3626.0
3715.0
3687.0
3711.0
3586.0
3651.0
3662.0
3672.0
3618.0
3671.0
3606.0
3591.0
3568.0
3634.0
3650.0
3538.0
3643.0
3583.0
3574.0
3523.0
3543.0
3522.0
3486.0
3483.0
3495.0
3574.0
3451.0
3451.0
3479.0
3426.0
3472.0
3427.0
3427.0
3507.0
3500.0
3504.0
3359.0
3427.0
3411.0
3355.0
3414.0
3427.0
3395.0
3422.0
3399.0
3283.0
3302.0
3283.0
3343.0
3378.0
3311.0
3239.0
3238.0
3311.0
3227.0
3242.0
3279.0
3215.0
3219.0
3191.0
3183.0
3175.0
3227.0
3255.0
3154.0
3266.0
3235.0
3123.0
3151.0
3155.0
3119.0
3114.0
3203.0
3118.0
3107.0
3151.0
3079.0
3150.0
3187.0
3111.0
3166.0
3160.0
3055.0
3135.0
3022.0
3122.0
3015.0
3010.0
3091.0
3043.0
3079.0
3071.0
3071.0
3071.0
3002.0
3055.0
3079.0
3004.0
2979.0
2958.0
2967.0
3018.0
2939.0
3014.0
2955.0
2938.0
2906.0
2931.0
2987.0
2935.0
2982.0
2887.0
2874.0
2979.0
2887.0
2854.0
2850.0
2951.0
2879.0
2915.0
2830.0
2811.0
2811.0
2903.0
2902.0
2838.0
2862.0
2859.0
2787.0
2767.0
2743.0
2831.0
2811.0
2758.0
2726.0
2791.0
2831.0
2747.0
2695.0
2739.0
2691.0
2702.0
2758.0
2759.0
2646.0
2642.0
2639.0
2687.0
2690.0
