2615.0
2567.0
2654.0
2627.0
2622.0
2602.0
2631.0
2639.0
2543.0
2552.0
2602.0
2603.0
2527.0
2567.0
2575.0
2499.0
2546.0
2562.0
2531.0
2511.0
2475.0
2538.0
2534.0
2455.0
2522.0
2435.0
2502.0
2435.0
2480.0
2422.0
2431.0
2415.0
2468.0
2394.0
2379.0
2466.0
2434.0
2367.0
2347.0
2422.0
2427.0
2327.0
2410.0
2334.0
2359.0
2395.0
2390.0
2382.0
2390.0
2371.0
2323.0
2362.0
2359.0
2298.0
2330.0
2271.0
2266.0
2278.0
2251.0
2279.0
2278.0
2247.0
2211.0
2231.0
2266.0
2290.0
2267.0
2203.0
2198.0
2191.0
2270.0
2203.0
2215.0
2178.0
2143.0
2162.0
2230.0
2179.0
2210.0
2195.0
2115.0
2138.0
2190.0
2115.0
2103.0
2175.0
2118.0
2119.0
2127.0
2146.0
2159.0
2138.0
2102.0
2163.0
2062.0
2099.0
2075.0
2104.0
2099.0
2039.0
2131.0
2046.0
2107.0
2047.0
2023.0
2031.0
2123.0
2019.0
2094.0
2094.0
2059.0
2078.0
2014.0
1995.0
2042.0
2085.0
2083.0
1994.0
2019.0
2071.0
1986.0
1979.0
1975.0
1966.0
2047.0
2053.0
1975.0
1987.0
1967.0
2027.0
1990.0
2051.0
1995.0
1966.0
1956.0
2047.0
1986.0
1963.0
1939.0
2003.0
1943.0
2022.0
1947.0
1919.0
1939.0
2011.0
2003.0
1987.0
1978.0
1954.0
1955.0
1927.0
2012.0
1947.0
1962.0
1998.0
1931.0
1999.0
1947.0
1998.0
1999.0
1939.0
1958.0
1934.0
1927.0
1923.0
1968.0
1987.0
1910.0
1975.0
1947.0
1915.0
1983.0
1930.0
1902.0
1910.0
1903.0
1903.0
1914.0
1895.0
1934.0
1983.0
1978.0
1947.0
1979.0
1967.0
1983.0
1907.0
1911.0
1911.0
1975.0
1979.0
1927.0
1987.0
1891.0
1915.0
1899.0
1970.0
1931.0
1879.0
1888.0
1878.0
1932.0
1894.0
1978.0
1974.0
1906.0
1951.0
1986.0
1914.0
1946.0
1962.0
1979.0
1979.0
1971.0
1923.0
1972.0
1923.0
1954.0
1919.0
1883.0
1967.0
1950.0
1906.0
1943.0
1891.0
1959.0
1895.0
1903.0
1895.0
1983.0
1951.0
1958.0
1947.0
1978.0
1959.0
1958.0
1891.0
1911.0
1870.0
1946.0
1934.0
1972.0
1878.0
1903.0
1878.0
1898.0
1890.0
1901.0
1978.0
1930.0
1990.0
1915.0
1966.0
1967.0
1947.0
1879.0
1903.0
1959.0
1938.0
1958.0
1911.0
1899.0
1899.0
1867.0
1878.0
1878.0
1934.0
1899.0
1962.0
1935.0
1923.0
1931.0
1899.0
1935.0
1967.0
1902.0
1912.0
1927.0
1947.0
1878.0
1854.0
1854.0
1914.0
1846.0
1931.0
1854.0
1858.0
1899.0
1934.0
1914.0
1859.0
1926.0
1903.0
1843.0
1906.0
1826.0
1827.0
1834.0
1870.0
1910.0
1891.0
1903.0
1911.0
1899.0
1831.0
1906.0
1899.0
1918.0
1854.0
1895.0
1822.0
1874.0
1811.0
1816.0
1851.0
1818.0
1883.0
1815.0
1826.0
1894.0
1915.0
1855.0
1911.0
1911.0
1835.0
1859.0
1859.0
1862.0
1939.0
1867.0
1922.0
1947.0
1883.0
1950.0
1899.0
2002.0
1971.0
2015.0
1958.0
2031.0
1979.0
2079.0
2110.0
2055.0
2070.0
2170.0
2103.0
2223.0
2171.0
2194.0
2227.0
2219.0
2264.0
2367.0
2359.0
2403.0
2407.0
2479.0
2479.0
2474.0
2474.0
2507.0
2554.0
2634.0
2671.0
2735.0
2687.0
2799.0
2783.0
2775.0
2879.0
2922.0
2895.0
2967.0
3026.0
3051.0
2992.0
3074.0
3135.0
3087.0
3146.0
3223.0
3255.0
3254.0
3242.0
3275.0
3351.0
3359.0
3399.0
3387.0
3470.0
3504.0
3455.0
3491.0
3491.0
3555.0
3547.0
3583.0
3591.0
3583.0
3683.0
3703.0
3719.0
3667.0
3683.0
3707.0
3720.0
3727.0
3774.0
3819.0
3834.0
3834.0
3842.0
3830.0
3843.0
3866.0
3859.0
3867.0
3832.0
3871.0
3910.0
3887.0
3951.0
3950.0
3891.0
3923.0
3883.0
3926.0
3927.0
3911.0
3895.0
3954.0
3947.0
3907.0
3879.0
3911.0
3966.0
3883.0
3879.0
3871.0
3903.0
3874.0
3847.0
3894.0
3914.0
3890.0
3926.0
3847.0
3822.0
3835.0
3831.0
3882.0
3830.0
3774.0
3787.0
3847.0
3775.0
3774.0
3720.0
3727.0
3718.0
3727.0
3684.0
3695.0
3730.0
3675.0
3747.0
3655.0
3696.0
3638.0
3702.0
3702.0
3614.0
3619.0
3579.0
3647.0
3627.0
3546.0
3552.0
3607.0
3534.0
3555.0
3531.0
3574.0
3579.0
3479.0
3559.0
3559.0
3491.0
3495.0
3431.0
3483.0
3471.0
3407.0
3458.0
3470.0
3383.0
3467.0
3415.0
3419.0
3363.0
3346.0
3415.0
3411.0
3408.0
3422.0
3359.0
3331.0
3315.0
3315.0
3395.0
3303.0
3315.0
3286.0
3295.0
3355.0
3295.0
3263.0
3250.0
3290.0
3243.0
3231.0
3234.0
3287.0
3267.0
3227.0
3286.0
3303.0
3294.0
3283.0
3219.0
3290.0
3198.0
3230.0
3195.0
3219.0
3198.0
3251.0
3202.0
3176.0
3179.0
3179.0
3199.0
3199.0
3195.0
3218.0
3178.0
3247.0
3163.0
3155.0
3151.0
3211.0
3176.0
3211.0
3207.0
3203.0
3143.0
3107.0
3119.0
3102.0
3171.0
3087.0
3162.0
3147.0
3155.0
3083.0
3090.0
3167.0
3162.0
3123.0
3135.0
3123.0
3103.0
3087.0
3019.0
3015.0
3035.0
3082.0
3019.0
3011.0
2974.0
2995.0
2951.0
3026.0
3023.0
3034.0
2990.0
3015.0
2987.0
2955.0
2935.0
2923.0
2971.0
2891.0
2866.0
2923.0
2922.0
2839.0
2842.0
2899.0
2815.0
2894.0
2819.0
2794.0
2843.0
2794.0
2807.0
2791.0
2862.0
2819.0
2823.0
2782.0
2815.0
2735.0
2774.0
2767.0
2755.0
2766.0
2775.0
2726.0
2714.0
2731.0
2767.0
2683.0
2695.0
2694.0
2687.0
2763.0
2723.0
2678.0
2682.0
2667.0
2723.0
2683.0
2691.0
2731.0
2739.0
2727.0
2707.0
2655.0
2643.0
2674.0
2723.0
2643.0
2643.0
2718.0
2654.0
2686.0
2711.0
2715.0
2723.0
2639.0
2642.0
2718.0
2627.0
2630.0
2631.0
2626.0
2714.0
2623.0
2667.0
2695.0
2631.0
2719.0
2660.0
2723.0
2650.0
2691.0
2653.0
2731.0
2683.0
2742.0
2710.0
2714.0
2739.0
2730.0
2703.0
2699.0
2671.0
2690.0
2751.0
2727.0
2690.0
2731.0
2659.0
2731.0
2748.0
2683.0
2710.0
2683.0
2694.0
2711.0
2702.0
2719.0
2663.0
2662.0
2639.0
2667.0
2691.0
2742.0
2746.0
2739.0
2743.0
2719.0
2715.0
2655.0
2742.0
2743.0
2718.0
2723.0
2730.0
2715.0
2726.0
2655.0
2659.0
2735.0
2630.0
2623.0
2699.0
2666.0
2711.0
2683.0
2663.0
2683.0
2691.0
2614.0
2686.0
2663.0
2663.0
2594.0
2623.0
2574.0
2627.0
2655.0
2559.0
2595.0
2555.0
2559.0
2592.0
2603.0
2618.0
2602.0
2591.0
2531.0
2523.0
2526.0
2570.0
2571.0
2515.0
2570.0
2491.0
2523.0
2514.0
2490.0
2494.0
2471.0
2466.0
2520.0
2417.0
2491.0
2423.0
2426.0
2443.0
2455.0
2470.0
2442.0
2439.0
2455.0
2446.0
2415.0
2431.0
2371.0
2431.0
2358.0
2395.0
2355.0
2399.0
2387.0
2399.0
2315.0
2386.0
2390.0
2355.0
2359.0
2387.0
2379.0
2322.0
2291.0
2367.0
2299.0
2286.0
2359.0
2266.0
2291.0
2251.0
2222.0
2287.0
2224.0
2223.0
2203.0
2234.0
2207.0
2247.0
2247.0
2251.0
2191.0
2235.0
2182.0
2230.0
2175.0
2166.0
2179.0
2175.0
2151.0
2139.0
2231.0
2139.0
2131.0
2118.0
2134.0
2202.0
2179.0
2214.0
2203.0
2107.0
2195.0
2223.0
2111.0
2103.0
2146.0
2118.0
2178.0
2103.0
2184.0
2150.0
2095.0
2099.0
2163.0
2147.0
2071.0
2059.0
2070.0
2120.0
2111.0
2143.0
2078.0
2118.0
2143.0
2071.0
2147.0
2047.0
2122.0
2139.0
2038.0
2026.0
2058.0
2023.0
2041.0
2019.0
2035.0
2003.0
2067.0
2055.0
2047.0
2080.0
2115.0
2047.0
2099.0
2094.0
2019.0
2027.0
2091.0
2007.0
1999.0
2039.0
1998.0
2014.0
2051.0
2082.0
1987.0
2034.0
2047.0
1995.0
2039.0
1998.0
2091.0
1991.0
1999.0
2071.0
2002.0
2071.0
2063.0
2055.0
1987.0
1979.0
2062.0
2011.0
1982.0
2039.0
2055.0
2075.0
2011.0
2064.0
1975.0
2079.0
2082.0
2003.0
2058.0
1984.0
2079.0
2014.0
2007.0
2083.0
1984.0
2027.0
2003.0
2047.0
2055.0
2039.0
2002.0
2014.0
1998.0
2018.0
2067.0
2031.0
2007.0
1994.0
2082.0
1999.0
2035.0
2078.0
2046.0
2019.0
2035.0
2007.0
1992.0
2078.0
2074.0
2018.0
2090.0
2063.0
2078.0
2070.0
2000.0
2075.0
2095.0
2016.0
2083.0
2111.0
2010.0
2084.0
2070.0
2087.0
1998.0
2047.0
2022.0
2070.0
2070.0
2062.0
1995.0
2084.0
2095.0
2024.0
2007.0
2018.0
2024.0
2030.0
2011.0
2103.0
2026.0
2106.0
2046.0
2003.0
2003.0
2063.0
2038.0
2023.0
2035.0
2003.0
2083.0
2099.0
2087.0
2003.0
2035.0
2035.0
2027.0
2083.0
2079.0
2023.0
2019.0
2079.0
2046.0
2071.0
2022.0
2103.0
2034.0
2103.0
2099.0
2007.0
2098.0
2099.0
2064.0
2022.0
2007.0
2034.0
2010.0
2091.0
2058.0
2107.0
2015.0
2095.0
2058.0
2064.0
2086.0
2006.0
2091.0
2050.0
2074.0
2047.0
1982.0
2003.0
2006.0
2074.0
1994.0
2019.0
2007.0
2016.0
2042.0
2085.0
2071.0
2067.0
2031.0
2042.0
2063.0
1971.0
1975.0
1978.0
1961.0
2035.0
2007.0
1959.0
1979.0
2026.0
1971.0
1991.0
1974.0
2059.0
1992.0
2066.0
1966.0
1998.0
2018.0
1982.0
1959.0
1958.0
2007.0
2026.0
2047.0
2063.0
2064.0
1986.0
2003.0
1994.0
1987.0
2066.0
2004.0
2067.0
2042.0
2115.0
2055.0
2127.0
2107.0
2062.0
2119.0
2139.0
2095.0
2102.0
2099.0
2113.0
2231.0
2166.0
2247.0
2215.0
2271.0
2279.0
2319.0
2291.0
2307.0
2398.0
2407.0
2470.0
2478.0
2436.0
2466.0
2531.0
2526.0
2591.0
2643.0
2666.0
2670.0
2743.0
2707.0
2718.0
2779.0
2807.0
2806.0
2850.0
2943.0
2959.0
2955.0
2971.0
2998.0
3098.0
3083.0
3094.0
3134.0
3131.0
3219.0
3266.0
3291.0
3239.0
3351.0
3336.0
3391.0
3407.0
3466.0
3438.0
3527.0
3506.0
3562.0
3495.0
3610.0
3554.0
3596.0
3627.0
3606.0
3646.0
3643.0
3655.0
3676.0
3739.0
3711.0
3786.0
3759.0
3803.0
3778.0
3871.0
3831.0
3818.0
3827.0
3883.0
3918.0
3935.0
3883.0
3895.0
3903.0
3902.0
3918.0
3971.0
3951.0
3899.0
3972.0
3906.0
3903.0
3987.0
3986.0
3971.0
3927.0
3927.0
3911.0
3979.0
3934.0
3998.0
3982.0
3899.0
3919.0
3939.0
3879.0
3863.0
3954.0
3947.0
3879.0
3867.0
3858.0
3855.0
3858.0
3855.0
3863.0
3854.0
3831.0
3871.0
3863.0
3810.0
3791.0
3835.0
3747.0
3831.0
3823.0
3775.0
3731.0
3779.0
3774.0
3727.0
3743.0
3763.0
3695.0
3703.0
3663.0
3687.0
3635.0
3643.0
3631.0
3675.0
3667.0
3594.0
3614.0
3639.0
3555.0
3603.0
3615.0
3595.0
3598.0
3539.0
3583.0
3519.0
3523.0
3578.0
3539.0
3474.0
3499.0
3462.0
3487.0
3499.0
3415.0
3411.0
3443.0
3474.0
3455.0
3411.0
3419.0
3370.0
3362.0
3439.0
3386.0
3406.0
3399.0
3334.0
3375.0
3402.0
3307.0
3334.0
3387.0
3295.0
3287.0
3311.0
3371.0
3259.0
3330.0
3323.0
3267.0
3300.0
3279.0
3315.0
3247.0
3279.0
3267.0
3255.0
3299.0
3310.0
3283.0
3287.0
3215.0
3258.0
3288.0
3247.0
3199.0
3195.0
3203.0
3202.0
3239.0
3215.0
3190.0
3223.0
3247.0
3228.0
3179.0
3247.0
3163.0
3226.0
3154.0
3166.0
3222.0
3191.0
3183.0
3139.0
3155.0
3123.0
3119.0
3172.0
3130.0
3110.0
3139.0
3103.0
3142.0
3115.0
3138.0
3139.0
3143.0
3147.0
3119.0
3063.0
3075.0
3114.0
3047.0
3015.0
2991.0
3063.0
2983.0
3031.0
3031.0
3059.0
2982.0
2951.0
3023.0
2951.0
2999.0
2938.0
2939.0
2995.0
2958.0
2966.0
2923.0
2955.0
2904.0
2907.0
2871.0
2911.0
2859.0
2823.0
2879.0
2827.0
2863.0
2819.0
2890.0
2851.0
2890.0
2803.0
2802.0
2847.0
2843.0
2824.0
2784.0
2827.0
2763.0
2814.0
2744.0
2746.0
2803.0
2735.0
2778.0
2755.0
2767.0
2789.0
2810.0
2742.0
2795.0
2719.0
2734.0
2763.0
2779.0
2795.0
2802.0
2743.0
2719.0
2747.0
2715.0
2714.0
2751.0
2715.0
2726.0
2691.0
2762.0
2710.0
2736.0
2713.0
2687.0
2755.0
2723.0
2727.0
2775.0
2739.0
2770.0
2694.0
2683.0
2732.0
2703.0
2702.0
2695.0
2734.0
2706.0
2699.0
2746.0
2683.0
2739.0
2767.0
2722.0
2711.0
2689.0
2771.0
2691.0
2694.0
2763.0
2767.0
2689.0
2739.0
2759.0
2742.0
2671.0
2758.0
2711.0
2699.0
2767.0
2686.0
2694.0
2783.0
2799.0
2775.0
2699.0
2718.0
2722.0
2695.0
2702.0
2787.0
2779.0
2711.0
2719.0
2690.0
2683.0
2679.0
2686.0
2682.0
2735.0
2689.0
2702.0
2715.0
2674.0
2746.0
2767.0
2671.0
2683.0
2662.0
2707.0
2735.0
2652.0
2734.0
2691.0
2631.0
2722.0
2675.0
2647.0
2631.0
2663.0
2631.0
2678.0
2703.0
2683.0
2619.0
2635.0
2663.0
2599.0
2599.0
2666.0
2631.0
2618.0
2579.0
2563.0
2620.0
2614.0
2583.0
2587.0
2543.0
2599.0
2574.0
2602.0
2559.0
2587.0
2514.0
2586.0
2571.0
2486.0
2574.0
2550.0
2482.0
2478.0
2451.0
2518.0
2447.0
2477.0
2487.0
2430.0
2467.0
2463.0
2463.0
2510.0
2414.0
2462.0
2399.0
2418.0
2451.0
2475.0
2458.0
2378.0
2431.0
2426.0
2458.0
2353.0
2347.0
2387.0
2399.0
2418.0
2323.0
2407.0
2382.0
2335.0
2355.0
2370.0
2302.0
2359.0
2343.0
2282.0
2343.0
2347.0
2354.0
2323.0
2283.0
2314.0
2315.0
2319.0
2291.0
2312.0
2322.0
2271.0
2235.0
2274.0
2271.0
2288.0
2219.0
2302.0
2223.0
2219.0
2200.0
2271.0
2230.0
2167.0
2195.0
2195.0
2238.0
2231.0
2151.0
2139.0
2178.0
2214.0
2207.0
2215.0
2137.0
2186.0
2210.0
2190.0
2203.0
2102.0
2112.0
2135.0
2103.0
2123.0
2175.0
2143.0
2167.0
2131.0
2087.0
2123.0
2075.0
2102.0
2091.0
2135.0
2095.0
2139.0
2099.0
2112.0
2126.0
2122.0
2154.0
2123.0
2091.0
2074.0
2123.0
2119.0
2032.0
2023.0
2075.0
2026.0
2079.0
2072.0
2066.0
2089.0
2030.0
2075.0
2035.0
2107.0
2098.0
2094.0
2099.0
2007.0
2019.0
1999.0
1999.0
2074.0
2003.0
2039.0
1967.0
2002.0
1983.0
2071.0
2047.0
2011.0
1983.0
2003.0
1990.0
2042.0
2015.0
2011.0
2020.0
1990.0
1975.0
1958.0
2058.0
1987.0
2047.0
2027.0
2014.0
1994.0
1998.0
2019.0
2006.0
1994.0
2063.0
2006.0
1959.0
2015.0
1994.0
1934.0
2012.0
2027.0
1951.0
1983.0
1935.0
2015.0
1982.0
2007.0
1947.0
2019.0
1935.0
1930.0
1951.0
1994.0
2019.0
1959.0
2023.0
2002.0
1934.0
2003.0
1963.0
1959.0
1934.0
1919.0
2018.0
1955.0
1958.0
1994.0
2006.0
2014.0
1927.0
1990.0
2020.0
2006.0
1967.0
1951.0
1939.0
1979.0
1950.0
1911.0
2035.0
1915.0
2023.0
1959.0
1970.0
1947.0
2003.0
1947.0
1962.0
1931.0
1919.0
1938.0
1958.0
1935.0
1971.0
2027.0
1979.0
1991.0
1958.0
1987.0
1954.0
1967.0
1944.0
1927.0
1987.0
1911.0
1951.0
1993.0
1946.0
1918.0
1998.0
1936.0
1922.0
2003.0
2022.0
1930.0
1954.0
2014.0
1939.0
2007.0
1938.0
2003.0
2030.0
1994.0
2010.0
1950.0
1950.0
1923.0
1947.0
1923.0
1978.0
1999.0
1979.0
1939.0
2014.0
1986.0
2014.0
1934.0
1943.0
1991.0
2010.0
1939.0
1967.0
1987.0
1992.0
1935.0
1951.0
1894.0
1909.0
1950.0
1923.0
1967.0
1930.0
1942.0
1947.0
1914.0
2008.0
1979.0
1959.0
1952.0
1967.0
1987.0
1958.0
1894.0
1935.0
1919.0
1939.0
1963.0
1890.0
1867.0
1886.0
1899.0
1922.0
1873.0
1894.0
1942.0
1907.0
1918.0
1894.0
1927.0
1859.0
1899.0
1938.0
1934.0
1903.0
1939.0
1935.0
1881.0
1859.0
1843.0
1955.0
1850.0
1859.0
1943.0
1847.0
1898.0
1875.0
1914.0
1943.0
1931.0
1947.0
1891.0
1867.0
1943.0
1922.0
1947.0
1902.0
1952.0
1959.0
1894.0
1915.0
1983.0
1914.0
1938.0
1939.0
1966.0
1975.0
2011.0
2011.0
2095.0
2030.0
2132.0
2139.0
2147.0
2163.0
2162.0
2122.0
2180.0
2174.0
2283.0
2299.0
2262.0
2263.0
2387.0
2366.0
2351.0
2382.0
2479.0
2498.0
2522.0
2502.0
2587.0
2592.0
2626.0
2630.0
2678.0
2679.0
2743.0
2799.0
2758.0
2830.0
2874.0
2911.0
2879.0
2919.0
2943.0
3035.0
3035.0
3027.0
3099.0
3095.0
3107.0
3171.0
3243.0
3251.0
3202.0
3291.0
3259.0
3330.0
3323.0
3312.0
3427.0
3375.0
3390.0
3463.0
3519.0
3499.0
3527.0
3470.0
3543.0
3567.0
3543.0
3551.0
3583.0
3615.0
3622.0
3663.0
3639.0
3695.0
3694.0
3679.0
3699.0
3707.0
3738.0
3742.0
3722.0
3759.0
3782.0
3762.0
3802.0
3806.0
3783.0
3716.0
3755.0
3731.0
3715.0
3811.0
3763.0
3743.0
3774.0
3758.0
3751.0
3811.0
3824.0
3731.0
3779.0
3763.0
3736.0
3803.0
3779.0
3738.0
3799.0
3778.0
3734.0
3742.0
3706.0
3695.0
3675.0
3663.0
3655.0
3730.0
3634.0
3639.0
3647.0
3619.0
3674.0
3619.0
3667.0
3647.0
3554.0
3611.0
3573.0
3555.0
3506.0
3507.0
3555.0
3583.0
3486.0
3467.0
3542.0
3447.0
3462.0
3499.0
3462.0
3486.0
3423.0
3399.0
3435.0
3418.0
3407.0
3371.0
3427.0
3378.0
3351.0
3307.0
3318.0
3339.0
3306.0
3256.0
3319.0
3335.0
3310.0
3239.0
3319.0
3311.0
3211.0
3271.0
3262.0
3215.0
3235.0
3219.0
3259.0
3243.0
3155.0
3174.0
3187.0
3131.0
3159.0
3191.0
3179.0
3135.0
3150.0
3147.0
3103.0
3127.0
3098.0
3130.0
3139.0
3107.0
3143.0
3119.0
3155.0
3123.0
3099.0
3087.0
3126.0
3051.0
3039.0
3043.0
3023.0
3016.0
3051.0
3046.0
3015.0
3083.0
3099.0
3059.0
3043.0
3055.0
3015.0
3043.0
3036.0
2975.0
2983.0
2975.0
3015.0
3031.0
2963.0
3039.0
3024.0
2987.0
2999.0
2946.0
2974.0
2935.0
2990.0
3014.0
3023.0
2974.0
2974.0
2975.0
2898.0
2898.0
2899.0
2888.0
2930.0
2887.0
2875.0
2859.0
2864.0
2851.0
2918.0
2935.0
2847.0
2867.0
2915.0
2835.0
2879.0
2818.0
2795.0
2826.0
2771.0
2831.0
2842.0
2815.0
2771.0
2775.0
2794.0
2807.0
2779.0
2703.0
2742.0
2703.0
2711.0
2726.0
2714.0
2695.0
2698.0
2711.0
2658.0
2671.0
2726.0
2672.0
2623.0
2663.0
2647.0
2695.0
2643.0
2686.0
