3335.0
3299.0
3263.0
3264.0
3272.0
3254.0
3239.0
3231.0
3190.0
3215.0
3202.0
3169.0
3175.0
3099.0
3147.0
3087.0
3130.0
3086.0
3023.0
3003.0
2979.0
3022.0
2967.0
2975.0
2998.0
2950.0
2887.0
2883.0
2898.0
2867.0
2915.0
2839.0
2879.0
2871.0
2822.0
2859.0
2839.0
2751.0
2771.0
2722.0
2731.0
2723.0
2715.0
2658.0
2639.0
2679.0
2643.0
2583.0
2627.0
2635.0
2611.0
2627.0
2603.0
2530.0
2506.0
2510.0
2563.0
2472.0
2466.0
2487.0
2479.0
2407.0
2391.0
2390.0
2399.0
2362.0
2355.0
2379.0
2351.0
2363.0
2387.0
2326.0
2388.0
2375.0
2350.0
2346.0
2287.0
2352.0
2271.0
2266.0
2270.0
2261.0
2274.0
2203.0
2279.0
2255.0
2267.0
2223.0
2203.0
2254.0
2206.0
2275.0
2199.0
2271.0
2246.0
2219.0
2259.0
2211.0
2191.0
2242.0
2235.0
2203.0
2170.0
2175.0
2227.0
2187.0
2242.0
2219.0
2179.0
2268.0
2247.0
2234.0
2226.0
2259.0
2259.0
2218.0
2207.0
2203.0
2207.0
2199.0
2270.0
2187.0
2259.0
2199.0
2239.0
2219.0
2207.0
2291.0
2271.0
2299.0
2262.0
2279.0
2278.0
2327.0
2275.0
2359.0
2331.0
2279.0
2351.0
2295.0
2298.0
2367.0
2283.0
2299.0
2307.0
2378.0
2375.0
2346.0
2411.0
2382.0
2363.0
2366.0
2407.0
2387.0
2423.0
2395.0
2423.0
2422.0
2415.0
2415.0
2423.0
2438.0
2394.0
2463.0
2443.0
2474.0
2399.0
2430.0
2439.0
2479.0
2439.0
2495.0
2443.0
2523.0
2519.0
2479.0
2526.0
2498.0
2471.0
2503.0
2483.0
2523.0
2478.0
2471.0
2491.0
2439.0
2499.0
2458.0
2551.0
2518.0
2507.0
2563.0
2550.0
2542.0
2514.0
2510.0
2514.0
2498.0
2471.0
2491.0
2487.0
2511.0
2540.0
2482.0
2499.0
2546.0
2506.0
2479.0
2527.0
2550.0
2515.0
2523.0
2474.0
2498.0
2559.0
2523.0
2522.0
2474.0
2462.0
2482.0
2519.0
2458.0
2450.0
2462.0
2470.0
2510.0
2470.0
2446.0
2518.0
2531.0
2530.0
2519.0
2499.0
2507.0
2494.0
2543.0
2475.0
2446.0
2479.0
2486.0
2447.0
2451.0
2451.0
2410.0
2419.0
2411.0
2430.0
2415.0
2479.0
2414.0
2471.0
2440.0
2430.0
2436.0
2459.0
2407.0
2462.0
2435.0
2431.0
2402.0
2383.0
2411.0
2366.0
2407.0
2350.0
2415.0
2371.0
2360.0
2362.0
2374.0
2391.0
2422.0
2366.0
2419.0
2382.0
2399.0
2399.0
2367.0
2319.0
2331.0
2315.0
2347.0
2319.0
2363.0
2342.0
2299.0
2311.0
2322.0
2327.0
2303.0
2298.0
2327.0
2326.0
2279.0
2355.0
2327.0
2263.0
2299.0
2307.0
2259.0
2250.0
2235.0
2230.0
2263.0
2275.0
2274.0
2302.0
2242.0
2242.0
2227.0
2239.0
2255.0
2303.0
2307.0
2247.0
2226.0
2235.0
2207.0
2294.0
2235.0
2267.0
2235.0
2254.0
2182.0
2184.0
2212.0
2166.0
2174.0
2228.0
2174.0
2223.0
2198.0
2198.0
2234.0
2211.0
2170.0
2210.0
2219.0
2170.0
2143.0
2223.0
2170.0
2156.0
2139.0
2195.0
2134.0
2187.0
2131.0
2122.0
2139.0
2135.0
2139.0
2175.0
2174.0
2166.0
2132.0
2126.0
2115.0
2106.0
2111.0
2083.0
2114.0
2135.0
2142.0
2092.0
2127.0
2079.0
2067.0
2067.0
2078.0
2071.0
2068.0
2139.0
2126.0
2138.0
2123.0
2096.0
2078.0
2067.0
2051.0
2047.0
2059.0
2095.0
2107.0
2046.0
2035.0
2118.0
2107.0
2115.0
2055.0
2118.0
2075.0
2115.0
2135.0
2114.0
2087.0
2142.0
2082.0
2127.0
2087.0
2146.0
2163.0
2090.0
2114.0
2178.0
2122.0
2163.0
2219.0
2226.0
2182.0
2263.0
2283.0
2282.0
2251.0
2339.0
2299.0
2343.0
2394.0
2323.0
2386.0
2411.0
2414.0
2462.0
2487.0
2479.0
2503.0
2575.0
2578.0
2587.0
2631.0
2654.0
2704.0
2674.0
2766.0
2762.0
2799.0
2782.0
2867.0
2851.0
2882.0
2922.0
2918.0
2987.0
3003.0
2982.0
2999.0
3039.0
3122.0
3127.0
3131.0
3207.0
3195.0
3263.0
3259.0
3250.0
3294.0
3367.0
3366.0
3403.0
3354.0
3374.0
3451.0
3454.0
3459.0
3483.0
3535.0
3502.0
3547.0
3598.0
3567.0
3599.0
3623.0
3635.0
3659.0
3679.0
3699.0
3690.0
3667.0
3707.0
3683.0
3702.0
3767.0
3718.0
3783.0
3779.0
3747.0
3759.0
3815.0
3815.0
3786.0
3807.0
3843.0
3855.0
3858.0
3862.0
3882.0
3843.0
3806.0
3875.0
3866.0
3858.0
3818.0
3823.0
3875.0
3846.0
3855.0
3847.0
3866.0
3823.0
3866.0
3843.0
3867.0
3822.0
3843.0
3867.0
3831.0
3795.0
3843.0
3811.0
3795.0
3803.0
3807.0
3807.0
3787.0
3779.0
3718.0
3731.0
3774.0
3747.0
3715.0
3730.0
3703.0
3719.0
3683.0
3655.0
3659.0
3690.0
3638.0
3634.0
3595.0
3599.0
3623.0
3562.0
3583.0
3531.0
3571.0
3558.0
3518.0
3536.0
3478.0
3511.0
3491.0
3483.0
3507.0
3502.0
3431.0
3423.0
3363.0
3415.0
3359.0
3359.0
3383.0
3306.0
3338.0
3330.0
3282.0
3259.0
3279.0
3256.0
3259.0
3270.0
3286.0
3207.0
3199.0
3175.0
3199.0
3198.0
3183.0
3119.0
3155.0
3111.0
3115.0
3055.0
3031.0
3040.0
3063.0
3039.0
2986.0
3015.0
3031.0
2951.0
2955.0
2991.0
2923.0
2939.0
2875.0
2870.0
2875.0
2871.0
2838.0
2843.0
2823.0
2790.0
2762.0
2734.0
2719.0
2703.0
2703.0
2667.0
2714.0
2707.0
2718.0
2646.0
2627.0
2619.0
2663.0
2579.0
2631.0
2563.0
2599.0
2583.0
2555.0
2519.0
2535.0
2463.0
2491.0
2455.0
2515.0
2471.0
2455.0
2442.0
2451.0
2447.0
2427.0
2435.0
2422.0
2447.0
2391.0
2391.0
2399.0
2363.0
2403.0
2394.0
2327.0
2399.0
2382.0
2318.0
2315.0
2319.0
2342.0
2342.0
2340.0
2355.0
2310.0
2342.0
2315.0
2350.0
2331.0
2358.0
2315.0
2315.0
2315.0
2343.0
2359.0
2319.0
2330.0
2314.0
2323.0
2338.0
2346.0
2343.0
2403.0
2415.0
2346.0
2394.0
2383.0
2354.0
2387.0
2423.0
2371.0
2383.0
2363.0
2379.0
2399.0
2414.0
2359.0
2399.0
2438.0
2414.0
2387.0
2439.0
2415.0
2414.0
2502.0
2439.0
2462.0
2458.0
2442.0
2415.0
2427.0
2442.0
2439.0
2451.0
2507.0
2462.0
2519.0
2486.0
2538.0
2495.0
2487.0
2535.0
2507.0
2552.0
2571.0
2538.0
2572.0
2555.0
2499.0
2586.0
2523.0
2574.0
2519.0
2563.0
2575.0
2546.0
2575.0
2531.0
2563.0
2579.0
2582.0
2587.0
2575.0
2574.0
2571.0
2619.0
2643.0
2578.0
2595.0
2639.0
2618.0
2574.0
2563.0
2631.0
2555.0
2626.0
2611.0
2578.0
2591.0
2619.0
2583.0
2627.0
2659.0
2639.0
2623.0
2671.0
2666.0
2603.0
2583.0
2656.0
2643.0
2627.0
2583.0
2582.0
2574.0
2583.0
2631.0
2630.0
2607.0
2642.0
2655.0
2572.0
2583.0
2638.0
2595.0
2618.0
2635.0
2607.0
2543.0
2587.0
2582.0
2578.0
2575.0
2578.0
2543.0
2599.0
2564.0
2598.0
2579.0
2530.0
2559.0
2587.0
2535.0
2555.0
2574.0
2538.0
2590.0
2575.0
2490.0
2563.0
2539.0
2547.0
2471.0
2470.0
2503.0
2462.0
2534.0
2455.0
2486.0
2479.0
2467.0
2526.0
2523.0
2487.0
2478.0
2459.0
2471.0
2438.0
2463.0
2499.0
2471.0
2419.0
2475.0
2459.0
2423.0
2443.0
2454.0
2440.0
2455.0
2463.0
2462.0
2467.0
2424.0
2439.0
2431.0
2451.0
2399.0
2382.0
2366.0
2363.0
2407.0
2354.0
2383.0
2391.0
2326.0
2360.0
2406.0
2335.0
2378.0
2399.0
2350.0
2403.0
2355.0
2335.0
2367.0
2371.0
2374.0
2403.0
2359.0
2294.0
2338.0
2283.0
2326.0
2326.0
2334.0
2299.0
2318.0
2276.0
2295.0
2272.0
2322.0
2315.0
2302.0
2338.0
2327.0
2267.0
2287.0
2254.0
2248.0
2299.0
2243.0
2295.0
2278.0
2235.0
2243.0
2271.0
2262.0
2194.0
2195.0
2258.0
2198.0
2243.0
2251.0
2194.0
2255.0
2190.0
2195.0
2179.0
2174.0
2191.0
2231.0
2214.0
2187.0
2182.0
2183.0
2170.0
2195.0
2158.0
2195.0
2151.0
2139.0
2219.0
2150.0
2131.0
2130.0
2138.0
2173.0
2190.0
2146.0
2135.0
2103.0
2110.0
2163.0
2139.0
2136.0
2082.0
2080.0
2131.0
2082.0
2107.0
2099.0
2099.0
2114.0
2114.0
2139.0
2094.0
2083.0
2103.0
2082.0
2095.0
2123.0
2074.0
2086.0
2142.0
2110.0
2119.0
2111.0
2111.0
2183.0
2195.0
2196.0
2171.0
2214.0
2167.0
2203.0
2239.0
2266.0
2216.0
2222.0
2266.0
2275.0
2323.0
2270.0
2315.0
2378.0
2430.0
2375.0
2446.0
2487.0
2475.0
2522.0
2502.0
2539.0
2599.0
2595.0
2607.0
2626.0
2676.0
2695.0
2698.0
2755.0
2783.0
2811.0
2811.0
2823.0
2907.0
2926.0
2939.0
2983.0
2995.0
3006.0
3099.0
3079.0
3111.0
3134.0
3176.0
3171.0
3198.0
3262.0
3230.0
3255.0
3275.0
3351.0
3375.0
3390.0
3399.0
3447.0
3450.0
3487.0
3478.0
3494.0
3534.0
3531.0
3522.0
3543.0
3611.0
3599.0
3635.0
3670.0
3667.0
3623.0
3674.0
3703.0
3678.0
3707.0
3742.0
3703.0
3767.0
3711.0
3795.0
3754.0
3795.0
3768.0
3831.0
3819.0
3826.0
3827.0
3795.0
3807.0
3800.0
3791.0
3811.0
3807.0
3819.0
3831.0
3848.0
3831.0
3799.0
3799.0
3803.0
3835.0
3779.0
3807.0
3838.0
3795.0
3782.0
3787.0
3827.0
3759.0
3767.0
3763.0
3719.0
3727.0
3758.0
3691.0
3774.0
3695.0
3763.0
3747.0
3710.0
3691.0
3683.0
3675.0
3663.0
3646.0
3634.0
3647.0
3634.0
3615.0
3603.0
3582.0
3567.0
3554.0
3535.0
3579.0
3532.0
3523.0
3487.0
3519.0
3535.0
3487.0
3506.0
3495.0
3435.0
3443.0
3494.0
3415.0
3395.0
3407.0
3390.0
3382.0
3343.0
3375.0
3315.0
3304.0
3331.0
3250.0
3279.0
3243.0
3271.0
3259.0
3271.0
3258.0
3270.0
3211.0
3231.0
3178.0
3178.0
3122.0
3166.0
3139.0
3122.0
3043.0
3043.0
3055.0
3043.0
3046.0
2991.0
2998.0
2978.0
3002.0
2951.0
2930.0
2987.0
2902.0
2959.0
2894.0
2867.0
2902.0
2831.0
2874.0
2811.0
2811.0
2783.0
2795.0
2766.0
2723.0
2711.0
2742.0
2695.0
2738.0
2671.0
2730.0
2671.0
2659.0
2686.0
2635.0
2654.0
2611.0
2591.0
2611.0
2527.0
2510.0
2574.0
2491.0
2486.0
2515.0
2495.0
2455.0
2487.0
2446.0
2486.0
2455.0
2442.0
2463.0
2418.0
2395.0
2371.0
2367.0
2403.0
2403.0
2342.0
2367.0
2339.0
2318.0
2387.0
2362.0
2338.0
2334.0
2355.0
2382.0
2299.0
2320.0
2302.0
2370.0
2343.0
2366.0
2343.0
2276.0
2299.0
2294.0
2358.0
2291.0
2328.0
2258.0
2334.0
2295.0
2343.0
2318.0
2343.0
2290.0
2314.0
2351.0
2286.0
2363.0
2319.0
2343.0
2371.0
2286.0
2334.0
2295.0
2342.0
2303.0
2338.0
2334.0
2395.0
2379.0
2343.0
2403.0
2335.0
2427.0
2374.0
2423.0
2374.0
2411.0
2427.0
2431.0
2371.0
2408.0
2435.0
2415.0
2375.0
2403.0
2471.0
2407.0
2411.0
2414.0
2435.0
2475.0
2446.0
2511.0
2519.0
2459.0
2470.0
2486.0
2527.0
2491.0
2486.0
2535.0
2519.0
2527.0
2542.0
2526.0
2503.0
2526.0
2566.0
2487.0
2522.0
2568.0
2510.0
2559.0
2599.0
2566.0
2575.0
2539.0
2616.0
2615.0
2582.0
2574.0
2588.0
2590.0
2542.0
2595.0
2583.0
2595.0
2610.0
2602.0
2551.0
2615.0
2594.0
2615.0
2574.0
2583.0
2590.0
2567.0
2574.0
2603.0
2563.0
2623.0
2547.0
2618.0
2619.0
2555.0
2550.0
2598.0
2607.0
2555.0
2559.0
2607.0
2571.0
2623.0
2626.0
2603.0
2627.0
2619.0
2562.0
2623.0
2607.0
2526.0
2583.0
2523.0
2531.0
2583.0
2527.0
2546.0
2586.0
2523.0
2574.0
2523.0
2563.0
2591.0
2590.0
2539.0
2551.0
2531.0
2563.0
2554.0
2511.0
2550.0
2531.0
2539.0
2527.0
2475.0
2474.0
2439.0
2474.0
2503.0
2490.0
2506.0
2479.0
2514.0
2527.0
2443.0
2503.0
2487.0
2435.0
2479.0
2424.0
2470.0
2427.0
2395.0
2387.0
2383.0
2439.0
2419.0
2431.0
2391.0
2379.0
2383.0
2386.0
2378.0
2422.0
2395.0
2416.0
2431.0
2392.0
2347.0
2399.0
2335.0
2319.0
2323.0
2358.0
2319.0
2307.0
2327.0
2304.0
2294.0
2311.0
2339.0
2367.0
2326.0
2378.0
2367.0
2295.0
2291.0
2288.0
2319.0
2267.0
2323.0
2328.0
2259.0
2263.0
2291.0
2275.0
2294.0
2298.0
2299.0
2295.0
2240.0
2283.0
2250.0
2299.0
2231.0
2286.0
2275.0
2214.0
2247.0
2207.0
2232.0
2246.0
2178.0
2247.0
2171.0
2246.0
2179.0
2162.0
2250.0
2183.0
2175.0
2231.0
2223.0
2208.0
2226.0
2199.0
2211.0
2166.0
2139.0
2159.0
2155.0
2118.0
2111.0
2155.0
2099.0
2151.0
2162.0
2160.0
2130.0
2135.0
2126.0
2178.0
2159.0
2158.0
2175.0
2158.0
2075.0
2083.0
2151.0
2074.0
2134.0
2102.0
2064.0
2051.0
2095.0
2031.0
2098.0
2035.0
2030.0
2087.0
2058.0
2035.0
2099.0
2091.0
2123.0
2111.0
2087.0
2090.0
2091.0
2096.0
2018.0
2011.0
2019.0
2083.0
2071.0
2014.0
2071.0
2075.0
2103.0
2043.0
2082.0
2055.0
2106.0
2131.0
2087.0
2106.0
2154.0
2147.0
2087.0
2107.0
2123.0
2154.0
2154.0
2159.0
2171.0
2171.0
2242.0
2187.0
2274.0
2255.0
2303.0
2331.0
2331.0
2402.0
2408.0
2437.0
2443.0
2418.0
2471.0
2491.0
2511.0
2558.0
2518.0
2567.0
2631.0
2623.0
2695.0
2694.0
2707.0
2755.0
2819.0
2799.0
2810.0
2883.0
2899.0
2903.0
2959.0
2967.0
2975.0
2986.0
2995.0
3035.0
3087.0
3094.0
3135.0
3138.0
3167.0
3210.0
3259.0
3223.0
3243.0
3294.0
3299.0
3334.0
3339.0
3363.0
3427.0
3443.0
3411.0
3459.0
3491.0
3491.0
3495.0
3523.0
3531.0
3499.0
3534.0
3563.0
3606.0
3567.0
3599.0
3635.0
3635.0
3664.0
3642.0
3694.0
3675.0
3651.0
3666.0
3702.0
3670.0
3658.0
3663.0
3651.0
3667.0
3714.0
3719.0
3695.0
3695.0
3694.0
3744.0
3703.0
3761.0
3759.0
3759.0
3751.0
3743.0
3755.0
3677.0
3715.0
3679.0
3698.0
3647.0
3675.0
3651.0
3647.0
3666.0
3647.0
3639.0
3634.0
3634.0
3623.0
3671.0
3615.0
3646.0
3651.0
3575.0
3610.0
3567.0
3618.0
3550.0
3515.0
3566.0
3551.0
3523.0
3526.0
3479.0
3486.0
3511.0
3443.0
3455.0
3447.0
3499.0
3479.0
3411.0
3474.0
3399.0
3410.0
3414.0
3355.0
3355.0
3347.0
3320.0
3294.0
3314.0
3287.0
3323.0
3255.0
3235.0
3239.0
3278.0
3271.0
3251.0
3227.0
3231.0
3194.0
3163.0
3131.0
3143.0
3134.0
3107.0
3083.0
3102.0
3087.0
3082.0
3046.0
3011.0
2998.0
2972.0
2963.0
2938.0
2947.0
2930.0
2970.0
2975.0
2919.0
2928.0
2867.0
2903.0
2863.0
2819.0
2823.0
2767.0
2758.0
2742.0
2747.0
2731.0
2687.0
2727.0
2654.0
2639.0
2687.0
2639.0
2698.0
2610.0
2630.0
2586.0
2598.0
2610.0
2592.0
2567.0
2490.0
2483.0
2470.0
2494.0
2463.0
2475.0
2455.0
2447.0
2400.0
2391.0
2407.0
2394.0
2394.0
2410.0
2395.0
2347.0
2384.0
2382.0
2346.0
2334.0
2263.0
2319.0
2279.0
2263.0
2287.0
2243.0
2271.0
2278.0
2239.0
2251.0
2219.0
2222.0
2280.0
2239.0
2191.0
2226.0
2243.0
2238.0
2195.0
2216.0
2174.0
2163.0
2183.0
2226.0
2166.0
2227.0
2163.0
2186.0
2243.0
2179.0
2175.0
2247.0
2203.0
2210.0
2183.0
2235.0
2195.0
2175.0
2250.0
2202.0
2235.0
2166.0
2247.0
2210.0
2239.0
2223.0
2183.0
2207.0
2217.0
2279.0
2291.0
2230.0
2270.0
2243.0
2311.0
2275.0
2310.0
2287.0
2263.0
2307.0
2270.0
2263.0
2251.0
2326.0
2259.0
2295.0
2339.0
2347.0
2302.0
2314.0
2391.0
2378.0
2351.0
2411.0
2356.0
2339.0
2362.0
2402.0
2410.0
2390.0
2355.0
2370.0
2431.0
2355.0
2423.0
2431.0
2383.0
2419.0
2430.0
2455.0
2403.0
2474.0
2455.0
2490.0
2474.0
2419.0
2411.0
2447.0
2439.0
2438.0
2459.0
2480.0
2459.0
2423.0
2467.0
2435.0
2507.0
2490.0
2463.0
2495.0
2459.0
2483.0
2459.0
2447.0
2530.0
2455.0
2462.0
2503.0
2438.0
2495.0
2443.0
2434.0
2498.0
2463.0
2498.0
2442.0
2494.0
2483.0
2499.0
2486.0
2519.0
2488.0
2514.0
2522.0
2474.0
2451.0
2474.0
2435.0
2431.0
2490.0
2415.0
2443.0
2463.0
2415.0
2410.0
2410.0
2427.0
2407.0
2428.0
2459.0
2463.0
2455.0
2427.0
2418.0
2455.0
2391.0
2411.0
2395.0
2406.0
2410.0
2375.0
2378.0
2418.0
2355.0
2366.0
2351.0
2415.0
2398.0
2355.0
2426.0
2351.0
2391.0
2406.0
2403.0
2403.0
2371.0
2383.0
2359.0
2363.0
2327.0
2351.0
2355.0
2327.0
2351.0
2318.0
2318.0
2291.0
2275.0
2343.0
2271.0
2291.0
2291.0
2327.0
2282.0
2347.0
2260.0
2299.0
2278.0
2291.0
2230.0
2279.0
2278.0
2214.0
2195.0
2215.0
2207.0
2270.0
2270.0
2210.0
2199.0
2222.0
2279.0
2232.0
2230.0
2212.0
2227.0
2243.0
2207.0
2198.0
2147.0
2166.0
2199.0
2195.0
2142.0
2192.0
2122.0
2147.0
2166.0
2195.0
2170.0
2188.0
2155.0
2218.0
2179.0
2211.0
2115.0
2163.0
2104.0
2122.0
2151.0
2162.0
2114.0
2159.0
2123.0
2135.0
2126.0
2071.0
2122.0
2059.0
2150.0
2063.0
2067.0
2107.0
2122.0
2082.0
2118.0
2062.0
2058.0
2098.0
2026.0
2003.0
2003.0
2055.0
1999.0
2014.0
2003.0
2070.0
1990.0
2059.0
2007.0
2067.0
2059.0
1983.0
2043.0
1999.0
1963.0
2006.0
1963.0
1962.0
1958.0
1943.0
1939.0
1998.0
1928.0
1947.0
1986.0
1966.0
1975.0
1983.0
1942.0
1978.0
1998.0
1943.0
1954.0
1967.0
1978.0
1995.0
1974.0
1919.0
1967.0
1955.0
1898.0
1903.0
1971.0
1966.0
1988.0
1914.0
1939.0
1911.0
1951.0
1926.0
2003.0
2010.0
1967.0
2014.0
1935.0
1947.0
2015.0
1962.0
2022.0
1946.0
1982.0
1963.0
2034.0
1998.0
2055.0
2070.0
2115.0
2057.0
2103.0
2151.0
2175.0
2127.0
2151.0
2222.0
2219.0
2224.0
2294.0
2243.0
2302.0
2267.0
2354.0
2343.0
2402.0
2426.0
2391.0
2495.0
2470.0
2519.0
2554.0
2523.0
2570.0
2639.0
2627.0
2651.0
2663.0
2754.0
2707.0
2715.0
2820.0
2847.0
2867.0
2842.0
2856.0
2883.0
2943.0
2982.0
3030.0
3027.0
3086.0
3067.0
3139.0
3139.0
3171.0
3198.0
3139.0
3231.0
3192.0
3263.0
3252.0
3231.0
3287.0
