2151.0
2142.0
2159.0
2122.0
2143.0
2216.0
2186.0
2198.0
2211.0
2218.0
2254.0
2286.0
2287.0
2330.0
2375.0
2400.0
2371.0
2402.0
2479.0
2431.0
2474.0
2534.0
2499.0
2592.0
2550.0
2626.0
2635.0
2683.0
2723.0
2711.0
2759.0
2755.0
2763.0
2832.0
2842.0
2946.0
2911.0
2943.0
2939.0
3023.0
3055.0
3055.0
3063.0
3067.0
3138.0
3111.0
3151.0
3219.0
3203.0
3264.0
3294.0
3323.0
3354.0
3354.0
3359.0
3426.0
3418.0
3478.0
3491.0
3527.0
3498.0
3519.0
3510.0
3522.0
3547.0
3579.0
3658.0
3671.0
3676.0
3670.0
3723.0
3671.0
3699.0
3770.0
3791.0
3820.0
3786.0
3791.0
3811.0
3794.0
3830.0
3831.0
3846.0
3827.0
3831.0
3823.0
3843.0
3918.0
3863.0
3907.0
3895.0
3890.0
3903.0
3946.0
3950.0
3923.0
3907.0
3979.0
3970.0
3963.0
3903.0
3931.0
3906.0
3914.0
3935.0
3951.0
3934.0
3951.0
3911.0
3903.0
3947.0
3899.0
3934.0
3902.0
3919.0
3923.0
3890.0
3938.0
3875.0
3899.0
3895.0
3839.0
3863.0
3875.0
3874.0
3815.0
3827.0
3870.0
3858.0
3839.0
3815.0
3839.0
3794.0
3818.0
3822.0
3811.0
3759.0
3755.0
3758.0
3790.0
3743.0
3719.0
3718.0
3663.0
3683.0
3655.0
3682.0
3695.0
3634.0
3671.0
3671.0
3607.0
3623.0
3578.0
3607.0
3607.0
3559.0
3543.0
3587.0
3554.0
3519.0
3507.0
3507.0
3471.0
3518.0
3431.0
3427.0
3475.0
3426.0
3434.0
3423.0
3406.0
3383.0
3422.0
3426.0
3439.0
3407.0
3399.0
3387.0
3338.0
3366.0
3271.0
3306.0
3339.0
3262.0
3235.0
3270.0
3259.0
3274.0
3227.0
3238.0
3227.0
3255.0
3239.0
3187.0
3211.0
3215.0
3187.0
3131.0
3111.0
3162.0
3132.0
3070.0
3059.0
3046.0
3107.0
3055.0
3035.0
3086.0
3006.0
3026.0
3031.0
3043.0
3038.0
3023.0
2951.0
2990.0
2959.0
2934.0
2954.0
2903.0
2867.0
2903.0
2878.0
2855.0
2820.0
2828.0
2827.0
2840.0
2835.0
2774.0
2850.0
2811.0
2827.0
2798.0
2787.0
2790.0
2718.0
2743.0
2767.0
2691.0
2687.0
2739.0
2667.0
2655.0
2642.0
2659.0
2670.0
2623.0
2691.0
2630.0
2699.0
2631.0
2646.0
2603.0
2679.0
2607.0
2607.0
2627.0
2599.0
2624.0
2555.0
2619.0
2595.0
2607.0
2591.0
2574.0
2555.0
2558.0
2558.0
2575.0
2610.0
2551.0
2602.0
2586.0
2583.0
2551.0
2583.0
2575.0
2591.0
2566.0
2527.0
2599.0
2587.0
2562.0
2523.0
2539.0
2535.0
2519.0
2607.0
2610.0
2582.0
2570.0
2632.0
2582.0
2571.0
2590.0
2583.0
2568.0
2607.0
2574.0
2547.0
2594.0
2562.0
2575.0
2599.0
2566.0
2598.0
2650.0
2584.0
2662.0
2647.0
2666.0
2666.0
2683.0
2672.0
2638.0
2687.0
2650.0
2639.0
2614.0
2655.0
2667.0
2680.0
2671.0
2679.0
2611.0
2622.0
2643.0
2689.0
2651.0
2687.0
2722.0
2702.0
2663.0
2675.0
2735.0
2718.0
2671.0
2671.0
2723.0
2703.0
2682.0
2711.0
2695.0
2655.0
2643.0
2715.0
2658.0
2718.0
2715.0
2691.0
2711.0
2683.0
2766.0
2747.0
2703.0
2731.0
2699.0
2707.0
2667.0
2715.0
2670.0
2683.0
2739.0
2699.0
2659.0
2698.0
2659.0
2723.0
2659.0
2695.0
2694.0
2678.0
2738.0
2686.0
2687.0
2654.0
2694.0
2687.0
2667.0
2647.0
2635.0
2687.0
2635.0
2687.0
2691.0
2672.0
2627.0
2686.0
2659.0
2631.0
2623.0
2606.0
2675.0
2679.0
2667.0
2643.0
2655.0
2591.0
2623.0
2575.0
2582.0
2603.0
2591.0
2551.0
2586.0
2579.0
2559.0
2559.0
2595.0
2534.0
2559.0
2534.0
2598.0
2539.0
2566.0
2523.0
2543.0
2558.0
2575.0
2510.0
2534.0
2534.0
2539.0
2527.0
2463.0
2514.0
2503.0
2467.0
2519.0
2467.0
2462.0
2502.0
2531.0
2522.0
2495.0
2503.0
2463.0
2487.0
2470.0
2394.0
2398.0
2463.0
2455.0
2390.0
2391.0
2419.0
2399.0
2410.0
2414.0
2383.0
2434.0
2378.0
2378.0
2383.0
2398.0
2359.0
2395.0
2375.0
2360.0
2351.0
2367.0
2348.0
2363.0
2371.0
2383.0
2332.0
2322.0
2382.0
2384.0
2343.0
2323.0
2375.0
2315.0
2343.0
2315.0
2371.0
2330.0
2320.0
2352.0
2311.0
2283.0
2295.0
2270.0
2335.0
2253.0
2258.0
2299.0
2267.0
2282.0
2295.0
2279.0
2287.0
2275.0
2350.0
2295.0
2232.0
2254.0
2311.0
2291.0
2235.0
2222.0
2258.0
2239.0
2263.0
2247.0
2260.0
2250.0
2247.0
2255.0
2198.0
2267.0
2294.0
2234.0
2219.0
2226.0
2278.0
2179.0
2233.0
2186.0
2186.0
2231.0
2187.0
2226.0
2215.0
2191.0
2151.0
2190.0
2238.0
2175.0
2231.0
2226.0
2196.0
2151.0
2178.0
2138.0
2179.0
2216.0
2139.0
2182.0
2118.0
2118.0
2163.0
2099.0
2143.0
2162.0
2171.0
2174.0
2158.0
2121.0
2147.0
2187.0
2122.0
2158.0
2122.0
2131.0
2099.0
2171.0
2103.0
2103.0
2095.0
2110.0
2099.0
2122.0
2063.0
2111.0
2103.0
2078.0
2151.0
2147.0
2142.0
2119.0
2142.0
2086.0
2131.0
2111.0
2078.0
2054.0
2120.0
2046.0
2054.0
2095.0
2106.0
2115.0
2062.0
2062.0
2114.0
2098.0
2051.0
2099.0
2139.0
2093.0
2106.0
2083.0
2091.0
2128.0
2039.0
2058.0
2059.0
2075.0
2028.0
2063.0
2047.0
2038.0
2031.0
2072.0
2071.0
2010.0
2023.0
2067.0
2110.0
2067.0
2019.0
2059.0
2084.0
2095.0
2058.0
2056.0
2031.0
2031.0
2034.0
2047.0
2035.0
1999.0
2014.0
1979.0
2047.0
2002.0
2014.0
2004.0
2038.0
2043.0
2023.0
2039.0
2047.0
2031.0
2003.0
2027.0
2003.0
1995.0
1978.0
1991.0
1983.0
1998.0
1994.0
1998.0
1992.0
2007.0
1999.0
2047.0
2071.0
2075.0
2047.0
2071.0
2044.0
2014.0
1995.0
2058.0
2047.0
2034.0
2091.0
2086.0
2090.0
2027.0
2112.0
2042.0
2106.0
2163.0
2091.0
2115.0
2123.0
2202.0
2198.0
2163.0
2179.0
2194.0
2211.0
2246.0
2290.0
2305.0
2298.0
2279.0
2335.0
2366.0
2347.0
2390.0
2370.0
2462.0
2454.0
2450.0
2495.0
2495.0
2566.0
2627.0
2631.0
2644.0
2646.0
2643.0
2703.0
2690.0
2780.0
2811.0
2843.0
2794.0
2867.0
2855.0
2939.0
2923.0
2955.0
2979.0
3030.0
3030.0
3126.0
3147.0
3139.0
3198.0
3191.0
3203.0
3271.0
3238.0
3323.0
3307.0
3327.0
3338.0
3387.0
3376.0
3379.0
3462.0
3502.0
3512.0
3568.0
3511.0
3541.0
3570.0
3622.0
3615.0
3631.0
3655.0
3631.0
3687.0
3666.0
3682.0
3687.0
3707.0
3722.0
3775.0
3767.0
3791.0
3795.0
3819.0
3774.0
3795.0
3807.0
3815.0
3835.0
3823.0
3843.0
3872.0
3863.0
3870.0
3851.0
3879.0
3899.0
3911.0
3847.0
3874.0
3911.0
3880.0
3938.0
3886.0
3883.0
3939.0
3903.0
3907.0
3935.0
3883.0
3879.0
3891.0
3887.0
3843.0
3896.0
3843.0
3866.0
3887.0
3906.0
3895.0
3852.0
3887.0
3894.0
3863.0
3839.0
3887.0
3863.0
3795.0
3834.0
3815.0
3787.0
3786.0
3795.0
3755.0
3755.0
3787.0
3775.0
3755.0
3692.0
3703.0
3682.0
3723.0
3710.0
3739.0
3703.0
3663.0
3659.0
3639.0
3655.0
3639.0
3650.0
3575.0
3607.0
3559.0
3542.0
3594.0
3542.0
3587.0
3535.0
3559.0
3498.0
3515.0
3479.0
3491.0
3455.0
3510.0
3458.0
3427.0
3459.0
3391.0
3427.0
3363.0
3382.0
3363.0
3379.0
3343.0
3315.0
3311.0
3326.0
3368.0
3311.0
3302.0
3279.0
3335.0
3266.0
3311.0
3254.0
3226.0
3246.0
3207.0
3251.0
3182.0
3235.0
3192.0
3134.0
3151.0
3167.0
3103.0
3095.0
3123.0
3134.0
3075.0
3131.0
3111.0
3066.0
3127.0
3091.0
3087.0
3031.0
3027.0
3019.0
2967.0
3006.0
2959.0
2919.0
2971.0
2939.0
2890.0
2942.0
2923.0
2907.0
2891.0
2903.0
2883.0
2851.0
2859.0
2847.0
2851.0
2827.0
2774.0
2815.0
2826.0
2750.0
2727.0
2711.0
2723.0
2707.0
2675.0
2687.0
2679.0
2672.0
2674.0
2711.0
2667.0
2656.0
2646.0
2703.0
2703.0
2704.0
2638.0
2675.0
2678.0
2607.0
2583.0
2602.0
2587.0
2611.0
2595.0
2587.0
2535.0
2566.0
2535.0
2559.0
2563.0
2579.0
2606.0
2582.0
2542.0
2571.0
2554.0
2587.0
2547.0
2571.0
2498.0
2503.0
2491.0
2515.0
2522.0
2563.0
2536.0
2471.0
2498.0
2551.0
2527.0
2531.0
2567.0
2511.0
2563.0
2514.0
2499.0
2507.0
2522.0
2498.0
2499.0
2522.0
2522.0
2547.0
2563.0
2515.0
2502.0
2511.0
2504.0
2563.0
2583.0
2595.0
2587.0
2535.0
2538.0
2559.0
2531.0
2535.0
2543.0
2587.0
2599.0
2595.0
2526.0
2538.0
2543.0
2547.0
2590.0
2607.0
2619.0
2546.0
2615.0
2623.0
2567.0
2614.0
2635.0
2646.0
2591.0
2647.0
2579.0
2635.0
2643.0
2591.0
2639.0
2615.0
2586.0
2639.0
2578.0
2594.0
2662.0
2607.0
2659.0
2671.0
2655.0
2682.0
2631.0
2679.0
2687.0
2627.0
2623.0
2611.0
2670.0
2602.0
2626.0
2602.0
2627.0
2647.0
2626.0
2671.0
2687.0
2687.0
2659.0
2663.0
2687.0
2623.0
2666.0
2608.0
2604.0
2635.0
2610.0
2655.0
2591.0
2614.0
2591.0
2627.0
2623.0
2619.0
2603.0
2655.0
2606.0
2638.0
2623.0
2647.0
2614.0
2630.0
2622.0
2559.0
2575.0
2591.0
2611.0
2619.0
2576.0
2599.0
2535.0
2523.0
2566.0
2551.0
2512.0
2563.0
2530.0
2539.0
2559.0
2526.0
2555.0
2567.0
2598.0
2514.0
2554.0
2519.0
2495.0
2543.0
2538.0
2516.0
2526.0
2475.0
2475.0
2491.0
2459.0
2519.0
2463.0
2502.0
2530.0
2547.0
2494.0
2463.0
2546.0
2515.0
2523.0
2459.0
2423.0
2467.0
2415.0
2410.0
2459.0
2398.0
2422.0
2395.0
2463.0
2443.0
2467.0
2422.0
2475.0
2451.0
2455.0
2427.0
2479.0
2403.0
2404.0
2431.0
2375.0
2374.0
2407.0
2375.0
2407.0
2411.0
2399.0
2382.0
2343.0
2318.0
2331.0
2350.0
2339.0
2379.0
2311.0
2391.0
2350.0
2395.0
2350.0
2367.0
2326.0
2355.0
2351.0
2283.0
2299.0
2271.0
2263.0
2295.0
2263.0
2282.0
2314.0
2256.0
2323.0
2302.0
2295.0
2347.0
2323.0
2271.0
2310.0
2295.0
2292.0
2307.0
2226.0
2254.0
2258.0
2279.0
2230.0
2238.0
2214.0
2259.0
2262.0
2235.0
2275.0
2294.0
2275.0
2247.0
2214.0
2259.0
2211.0
2267.0
2174.0
2254.0
2198.0
2226.0
2207.0
2239.0
2206.0
2167.0
2151.0
2171.0
2179.0
2211.0
2183.0
2203.0
2191.0
2227.0
2234.0
2219.0
2211.0
2155.0
2139.0
2204.0
2198.0
2134.0
2139.0
2122.0
2115.0
2103.0
2158.0
2158.0
2143.0
2111.0
2178.0
2127.0
2183.0
2166.0
2131.0
2163.0
2114.0
2103.0
2082.0
2095.0
2103.0
2074.0
2114.0
2070.0
2119.0
2119.0
2090.0
2099.0
2074.0
2099.0
2114.0
2083.0
2143.0
2130.0
2138.0
2143.0
2075.0
2119.0
2091.0
2047.0
2079.0
2106.0
2067.0
2033.0
2035.0
2031.0
2091.0
2070.0
2051.0
2091.0
2106.0
2087.0
2091.0
2059.0
2063.0
2043.0
2018.0
2070.0
2059.0
2054.0
2055.0
2062.0
1992.0
2019.0
1979.0
2055.0
1990.0
2070.0
2006.0
1991.0
2075.0
1990.0
1999.0
2015.0
2004.0
2075.0
2047.0
2059.0
2047.0
2042.0
2027.0
1955.0
1947.0
2031.0
2019.0
1998.0
1978.0
1963.0
1971.0
2014.0
2038.0
1983.0
2056.0
2002.0
2007.0
1962.0
2023.0
2015.0
1962.0
2019.0
1955.0
1939.0
1935.0
1947.0
1946.0
1974.0
2015.0
1955.0
2031.0
1974.0
1983.0
2010.0
2003.0
1999.0
2026.0
2051.0
1976.0
2018.0
2023.0
2035.0
1998.0
1992.0
2002.0
2010.0
2022.0
2083.0
2019.0
2119.0
2055.0
2130.0
2151.0
2159.0
2107.0
2131.0
2206.0
2223.0
2215.0
2179.0
2198.0
2203.0
2227.0
2223.0
2222.0
2254.0
2275.0
2267.0
2371.0
2371.0
2403.0
2427.0
2451.0
2459.0
2462.0
2531.0
2515.0
2591.0
2618.0
2562.0
2643.0
2623.0
2635.0
2730.0
2679.0
2723.0
2774.0
2775.0
2863.0
2851.0
2870.0
2903.0
2931.0
2951.0
3041.0
3070.0
3023.0
3106.0
3070.0
3127.0
3177.0
3215.0
3167.0
3242.0
3239.0
3248.0
3259.0
3327.0
3314.0
3391.0
3371.0
3406.0
3463.0
3490.0
3475.0
3482.0
3503.0
3531.0
3570.0
3535.0
3626.0
3574.0
3614.0
3615.0
3654.0
3640.0
3651.0
3699.0
3724.0
3730.0
3743.0
3735.0
3778.0
3767.0
3775.0
3802.0
3823.0
3838.0
3823.0
3799.0
3799.0
3783.0
3783.0
3795.0
3811.0
3794.0
3855.0
3807.0
3823.0
3867.0
3835.0
3855.0
3847.0
3867.0
3853.0
3891.0
3847.0
3843.0
3851.0
3871.0
3826.0
3835.0
3827.0
3858.0
3847.0
3871.0
3854.0
3815.0
3798.0
3855.0
3838.0
3843.0
3790.0
3795.0
3835.0
3830.0
3774.0
3815.0
3799.0
3774.0
3735.0
3730.0
3723.0
3690.0
3735.0
3670.0
3675.0
3719.0
3675.0
3691.0
3679.0
3662.0
3719.0
3691.0
3627.0
3639.0
3607.0
3607.0
3622.0
3603.0
3571.0
3554.0
3576.0
3547.0
3518.0
3519.0
3538.0
3474.0
3463.0
3486.0
3454.0
3503.0
3438.0
3431.0
3451.0
3423.0
3399.0
3407.0
3439.0
3390.0
3386.0
3318.0
3331.0
3327.0
3352.0
3323.0
3274.0
3279.0
3303.0
3296.0
3291.0
3266.0
3247.0
3282.0
3263.0
3243.0
3219.0
3223.0
3203.0
3159.0
3123.0
3187.0
3159.0
3087.0
3151.0
3070.0
3059.0
3038.0
3030.0
3070.0
3063.0
3083.0
3027.0
3070.0
2986.0
3035.0
2958.0
3030.0
2971.0
2950.0
2982.0
2890.0
2903.0
2867.0
2882.0
2903.0
2864.0
2854.0
2863.0
2807.0
2880.0
2822.0
2862.0
2783.0
2819.0
2843.0
2743.0
2771.0
2763.0
2703.0
2703.0
2718.0
2723.0
2714.0
2643.0
2655.0
2692.0
2618.0
2663.0
2678.0
2671.0
2662.0
2647.0
2639.0
2602.0
2606.0
2647.0
2602.0
2622.0
2603.0
2579.0
2507.0
2570.0
2567.0
2519.0
2495.0
2483.0
2498.0
2527.0
2519.0
2483.0
2515.0
2543.0
2495.0
2479.0
2543.0
2467.0
2483.0
2491.0
2466.0
2455.0
2493.0
2458.0
2435.0
2454.0
2507.0
2446.0
2483.0
2459.0
2446.0
2459.0
2467.0
2450.0
2503.0
2459.0
2470.0
2551.0
2495.0
2483.0
2491.0
2470.0
2443.0
2522.0
2474.0
2503.0
2467.0
2459.0
2475.0
2463.0
2535.0
2542.0
2519.0
2518.0
2543.0
2559.0
2563.0
2543.0
2522.0
2534.0
2567.0
2543.0
2550.0
2558.0
2518.0
2563.0
2511.0
2507.0
2575.0
2554.0
2575.0
2559.0
2599.0
2622.0
2622.0
2598.0
2627.0
2622.0
2623.0
2599.0
2619.0
2631.0
2587.0
2562.0
2622.0
2570.0
2562.0
2611.0
2599.0
2574.0
2595.0
2627.0
2655.0
2670.0
2634.0
2627.0
2622.0
2655.0
2631.0
2623.0
2631.0
2667.0
2607.0
2614.0
2646.0
2631.0
2579.0
2575.0
2599.0
2607.0
2630.0
2607.0
2594.0
2662.0
2642.0
2650.0
2618.0
2631.0
2622.0
2635.0
2606.0
2643.0
2571.0
2591.0
2575.0
2603.0
2631.0
2610.0
2551.0
2567.0
2631.0
2627.0
2595.0
2647.0
2598.0
2603.0
2579.0
2571.0
2550.0
2566.0
2543.0
2523.0
2544.0
2586.0
2527.0
2522.0
2563.0
2539.0
2500.0
2491.0
2498.0
2506.0
2511.0
2550.0
2556.0
2506.0
2490.0
2495.0
2495.0
2502.0
2543.0
2462.0
2499.0
2490.0
2459.0
2435.0
2430.0
2423.0
2419.0
2410.0
2479.0
2443.0
2439.0
2479.0
2414.0
2459.0
2426.0
2411.0
2387.0
2374.0
2411.0
2399.0
2342.0
2375.0
2366.0
2403.0
2423.0
2398.0
2400.0
2349.0
2382.0
2335.0
2399.0
2339.0
2319.0
2314.0
2387.0
2342.0
2291.0
2294.0
2339.0
2303.0
2327.0
2290.0
2287.0
2247.0
2254.0
2290.0
2315.0
2239.0
2248.0
2314.0
2279.0
2279.0
2242.0
2258.0
2310.0
2303.0
2212.0
2242.0
2223.0
2194.0
2258.0
2223.0
2211.0
2238.0
2231.0
2231.0
2243.0
2155.0
2192.0
2231.0
2186.0
2187.0
2183.0
2151.0
2166.0
2170.0
2175.0
2210.0
2195.0
2126.0
2142.0
2119.0
2174.0
2123.0
2162.0
2115.0
2158.0
2095.0
2106.0
2143.0
2098.0
2171.0
2178.0
2183.0
2123.0
2103.0
2163.0
2135.0
2114.0
2110.0
2059.0
2127.0
2058.0
2094.0
2098.0
2066.0
2115.0
2110.0
2039.0
2126.0
2047.0
2070.0
2067.0
2050.0
2127.0
2098.0
2052.0
2031.0
2030.0
2057.0
2074.0
2087.0
2011.0
2038.0
2075.0
1990.0
1994.0
2067.0
2068.0
2019.0
2071.0
2075.0
2074.0
2067.0
2063.0
2031.0
2058.0
1991.0
2010.0
1987.0
1967.0
2035.0
2023.0
2023.0
2011.0
2042.0
1975.0
2023.0
2039.0
1994.0
1979.0
1959.0
1987.0
2014.0
1963.0
2023.0
1962.0
1935.0
1939.0
2006.0
2010.0
1920.0
1910.0
1935.0
1982.0
1943.0
1922.0
1979.0
1922.0
1999.0
1998.0
1926.0
2003.0
1966.0
1960.0
1954.0
1928.0
1964.0
1963.0
1883.0
1940.0
1890.0
1918.0
1880.0
1870.0
1950.0
1879.0
1867.0
1883.0
1879.0
1958.0
1931.0
1950.0
1943.0
1902.0
1890.0
1886.0
1883.0
1866.0
1864.0
1899.0
1887.0
1839.0
1844.0
1862.0
1847.0
1827.0
1831.0
1866.0
1843.0
1846.0
1850.0
1890.0
1903.0
1863.0
1900.0
1903.0
1843.0
1871.0
1830.0
1811.0
1879.0
1880.0
1882.0
1853.0
1819.0
1872.0
1902.0
1836.0
1854.0
1842.0
1903.0
1855.0
1851.0
1923.0
1859.0
1855.0
1914.0
1914.0
1879.0
1898.0
1924.0
1867.0
1946.0
1902.0
1943.0
1931.0
1991.0
1955.0
2019.0
2034.0
2063.0
2019.0
2043.0
2063.0
2143.0
2095.0
2107.0
2119.0
2198.0
2171.0
2182.0
2255.0
2290.0
2258.0
2327.0
2315.0
2383.0
2407.0
2407.0
2466.0
2439.0
2518.0
2539.0
2534.0
2556.0
2578.0
2644.0
2670.0
2647.0
2698.0
2730.0
2787.0
2812.0
2843.0
2850.0
2843.0
2930.0
2895.0
2951.0
3022.0
3011.0
3083.0
3047.0
3139.0
3119.0
3111.0
3199.0
3186.0
3223.0
3255.0
3219.0
3231.0
3323.0
3287.0
3370.0
3362.0
3355.0
3434.0
3439.0
3431.0
3487.0
3499.0
3519.0
3546.0
3523.0
3531.0
3542.0
3543.0
3550.0
3599.0
3659.0
3618.0
3663.0
3654.0
3687.0
3683.0
3722.0
3715.0
3739.0
3750.0
3711.0
3739.0
3790.0
3750.0
3731.0
3802.0
3807.0
3783.0
3759.0
3739.0
3803.0
3755.0
3751.0
3747.0
3812.0
3763.0
3785.0
3775.0
3791.0
3794.0
3827.0
3766.0
3838.0
3848.0
3830.0
3811.0
3787.0
3774.0
3775.0
3759.0
