2394.0
2482.0
2499.0
2483.0
2434.0
2503.0
2458.0
2471.0
2527.0
2447.0
2442.0
2490.0
2483.0
2435.0
2514.0
2443.0
2446.0
2455.0
2530.0
2483.0
2515.0
2491.0
2514.0
2511.0
2520.0
2526.0
2523.0
2574.0
2543.0
2526.0
2511.0
2559.0
2583.0
2579.0
2587.0
2534.0
2530.0
2579.0
2575.0
2535.0
2531.0
2558.0
2635.0
2610.0
2559.0
2567.0
2606.0
2570.0
2586.0
2606.0
2635.0
2647.0
2623.0
2595.0
2631.0
2568.0
2590.0
2630.0
2582.0
2568.0
2599.0
2594.0
2619.0
2623.0
2630.0
2618.0
2610.0
2618.0
2594.0
2675.0
2579.0
2651.0
2630.0
2606.0
2647.0
2586.0
2603.0
2643.0
2627.0
2590.0
2627.0
2615.0
2587.0
2627.0
2622.0
2619.0
2651.0
2606.0
2598.0
2615.0
2609.0
2630.0
2586.0
2567.0
2648.0
2627.0
2591.0
2595.0
2570.0
2607.0
2643.0
2639.0
2626.0
2614.0
2586.0
2623.0
2639.0
2631.0
2635.0
2595.0
2567.0
2551.0
2590.0
2523.0
2535.0
2586.0
2542.0
2594.0
2590.0
2570.0
2550.0
2598.0
2531.0
2527.0
2555.0
2572.0
2566.0
2599.0
2511.0
2520.0
2555.0
2539.0
2518.0
2503.0
2478.0
2487.0
2491.0
2498.0
2475.0
2471.0
2470.0
2463.0
2486.0
2479.0
2519.0
2490.0
2527.0
2455.0
2467.0
2503.0
2516.0
2438.0
2423.0
2447.0
2487.0
2451.0
2406.0
2479.0
2411.0
2407.0
2426.0
2443.0
2427.0
2490.0
2426.0
2435.0
2475.0
2462.0
2403.0
2387.0
2394.0
2390.0
2449.0
2379.0
2383.0
2443.0
2363.0
2447.0
2390.0
2355.0
2427.0
2367.0
2415.0
2375.0
2379.0
2435.0
2370.0
2431.0
2411.0
2371.0
2403.0
2360.0
2326.0
2391.0
2351.0
2398.0
2374.0
2326.0
2370.0
2307.0
2378.0
2343.0
2355.0
2347.0
2343.0
2322.0
2370.0
2307.0
2355.0
2339.0
2303.0
2350.0
2302.0
2346.0
2315.0
2279.0
2294.0
2326.0
2271.0
2282.0
2291.0
2315.0
2315.0
2322.0
2267.0
2315.0
2338.0
2311.0
2326.0
2239.0
2247.0
2244.0
2242.0
2267.0
2198.0
2271.0
2252.0
2270.0
2263.0
2215.0
2258.0
2263.0
2263.0
2275.0
2199.0
2271.0
2231.0
2251.0
2205.0
2190.0
2162.0
2222.0
2242.0
2179.0
2206.0
2191.0
2163.0
2151.0
2203.0
2143.0
2163.0
2211.0
2223.0
2155.0
2159.0
2202.0
2159.0
2203.0
2171.0
2138.0
2131.0
2200.0
2186.0
2171.0
2174.0
2131.0
2179.0
2167.0
2142.0
2127.0
2139.0
2150.0
2127.0
2135.0
2139.0
2219.0
2162.0
2175.0
2179.0
2150.0
2187.0
2218.0
2215.0
2143.0
2170.0
2159.0
2235.0
2207.0
2199.0
2215.0
2231.0
2227.0
2318.0
2263.0
2319.0
2310.0
2322.0
2336.0
2334.0
2343.0
2423.0
2431.0
2382.0
2406.0
2407.0
2447.0
2531.0
2519.0
2530.0
2567.0
2558.0
2595.0
2583.0
2663.0
2683.0
2683.0
2711.0
2738.0
2735.0
2718.0
2782.0
2790.0
2815.0
2819.0
2843.0
2843.0
2891.0
2951.0
2931.0
2947.0
3007.0
3019.0
3075.0
3126.0
3098.0
3139.0
3143.0
3139.0
3138.0
3175.0
3234.0
3191.0
3246.0
3224.0
3271.0
3299.0
3259.0
3362.0
3398.0
3375.0
3355.0
3435.0
3442.0
3467.0
3423.0
3501.0
3471.0
3523.0
3495.0
3526.0
3559.0
3527.0
3535.0
3558.0
3598.0
3603.0
3591.0
3630.0
3619.0
3567.0
3646.0
3635.0
3686.0
3647.0
3655.0
3623.0
3631.0
3658.0
3687.0
3679.0
3634.0
3674.0
3650.0
3655.0
3619.0
3679.0
3671.0
3691.0
3694.0
3630.0
3627.0
3670.0
3655.0
3711.0
3639.0
3679.0
3699.0
3694.0
3631.0
3683.0
3655.0
3675.0
3643.0
3575.0
3607.0
3574.0
3563.0
3618.0
3603.0
3563.0
3551.0
3627.0
3602.0
3607.0
3531.0
3547.0
3550.0
3567.0
3518.0
3533.0
3483.0
3510.0
3502.0
3419.0
3415.0
3479.0
3459.0
3391.0
3383.0
3431.0
3398.0
3392.0
3362.0
3355.0
3370.0
3379.0
3383.0
3299.0
3367.0
3327.0
3307.0
3246.0
3282.0
3288.0
3230.0
3239.0
3182.0
3211.0
3155.0
3186.0
3143.0
3150.0
3150.0
3098.0
3099.0
3118.0
3138.0
3119.0
3086.0
3063.0
3067.0
3007.0
2982.0
3035.0
2990.0
2951.0
2943.0
2943.0
2922.0
2946.0
2906.0
2878.0
2906.0
2867.0
2894.0
2855.0
2814.0
2807.0
2795.0
2747.0
2791.0
2747.0
2719.0
2695.0
2738.0
2675.0
2670.0
2695.0
2675.0
2643.0
2691.0
2603.0
2635.0
2607.0
2628.0
2643.0
2591.0
2595.0
2528.0
2539.0
2518.0
2486.0
2478.0
2531.0
2439.0
2434.0
2486.0
2483.0
2455.0
2442.0
2482.0
2419.0
2487.0
2455.0
2414.0
2431.0
2367.0
2363.0
2366.0
2367.0
2343.0
2343.0
2315.0
2371.0
2362.0
2274.0
2291.0
2359.0
2350.0
2322.0
2303.0
2338.0
2346.0
2291.0
2304.0
2271.0
2263.0
2247.0
2259.0
2255.0
2310.0
2288.0
2234.0
2242.0
2294.0
2286.0
2233.0
2227.0
2310.0
2230.0
2306.0
2294.0
2255.0
2283.0
2286.0
2335.0
2319.0
2263.0
2298.0
2347.0
2315.0
2286.0
2266.0
2318.0
2295.0
2259.0
2266.0
2310.0
2371.0
2311.0
2366.0
2343.0
2334.0
2350.0
2331.0
2374.0
2367.0
2339.0
2362.0
2375.0
2371.0
2419.0
2383.0
2415.0
2378.0
2363.0
2383.0
2440.0
2431.0
2426.0
2439.0
2431.0
2427.0
2446.0
2486.0
2495.0
2462.0
2463.0
2510.0
2443.0
2494.0
2466.0
2490.0
2450.0
2488.0
2499.0
2451.0
2534.0
2475.0
2515.0
2555.0
2523.0
2542.0
2520.0
2523.0
2575.0
2535.0
2531.0
2528.0
2542.0
2542.0
2530.0
2599.0
2579.0
2598.0
2587.0
2599.0
2578.0
2587.0
2623.0
2571.0
2631.0
2648.0
2559.0
2606.0
2590.0
2618.0
2574.0
2611.0
2606.0
2599.0
2571.0
2614.0
2602.0
2559.0
2559.0
2562.0
2582.0
2567.0
2639.0
2643.0
2615.0
2655.0
2649.0
2643.0
2595.0
2614.0
2614.0
2623.0
2570.0
2622.0
2566.0
2570.0
2611.0
2591.0
2595.0
2626.0
2614.0
2619.0
2563.0
2635.0
2639.0
2578.0
2663.0
2600.0
2643.0
2579.0
2630.0
2595.0
2563.0
2546.0
2547.0
2575.0
2598.0
2543.0
2587.0
2554.0
2599.0
2599.0
2534.0
2607.0
2623.0
2539.0
2563.0
2547.0
2551.0
2583.0
2580.0
2594.0
2586.0
2515.0
2510.0
2510.0
2551.0
2554.0
2551.0
2499.0
2570.0
2511.0
2495.0
2530.0
2487.0
2495.0
2566.0
2523.0
2479.0
2499.0
2543.0
2494.0
2499.0
2487.0
2475.0
2459.0
2530.0
2450.0
2506.0
2515.0
2503.0
2438.0
2447.0
2443.0
2515.0
2467.0
2475.0
2455.0
2475.0
2467.0
2463.0
2427.0
2411.0
2439.0
2462.0
2395.0
2446.0
2406.0
2379.0
2439.0
2399.0
2403.0
2408.0
2471.0
2463.0
2398.0
2471.0
2406.0
2395.0
2415.0
2471.0
2439.0
2462.0
2390.0
2375.0
2447.0
2443.0
2447.0
2375.0
2399.0
2367.0
2362.0
2406.0
2371.0
2367.0
2451.0
2438.0
2362.0
2378.0
2379.0
2439.0
2359.0
2395.0
2379.0
2395.0
2391.0
2347.0
2347.0
2351.0
2403.0
2402.0
2399.0
2342.0
2327.0
2339.0
2346.0
2351.0
2347.0
2374.0
2403.0
2331.0
2387.0
2347.0
2319.0
2314.0
2371.0
2371.0
2347.0
2279.0
2295.0
2310.0
2335.0
2339.0
2282.0
2302.0
2306.0
2343.0
2338.0
2290.0
2327.0
2351.0
2299.0
2290.0
2320.0
2338.0
2282.0
2316.0
2227.0
2287.0
2231.0
2307.0
2303.0
2310.0
2306.0
2299.0
2315.0
2270.0
2299.0
2239.0
2266.0
2306.0
2238.0
2223.0
2243.0
2286.0
2267.0
2198.0
2270.0
2255.0
2218.0
2199.0
2207.0
2239.0
2235.0
2310.0
2295.0
2211.0
2278.0
2218.0
2295.0
2243.0
2246.0
2243.0
2290.0
2259.0
2215.0
2251.0
2282.0
2219.0
2266.0
2243.0
2291.0
2250.0
2299.0
2331.0
2299.0
2278.0
2306.0
2327.0
2374.0
2382.0
2314.0
2392.0
2407.0
2335.0
2423.0
2363.0
2378.0
2379.0
2406.0
2418.0
2507.0
2520.0
2515.0
2526.0
2559.0
2535.0
2590.0
2586.0
2627.0
2622.0
2650.0
2690.0
2675.0
2680.0
2746.0
2787.0
2723.0
2787.0
2775.0
2851.0
2867.0
2916.0
2894.0
2930.0
2987.0
2999.0
3023.0
3040.0
3063.0
3106.0
3110.0
3059.0
3151.0
3171.0
3163.0
3211.0
3159.0
3194.0
3199.0
3271.0
3294.0
3327.0
3315.0
3347.0
3368.0
3362.0
3415.0
3434.0
3420.0
3490.0
3459.0
3511.0
3423.0
3494.0
3522.0
3478.0
3503.0
3554.0
3510.0
3567.0
3543.0
3615.0
3576.0
3639.0
3610.0
3680.0
3690.0
3655.0
3648.0
3694.0
3695.0
3667.0
3707.0
3663.0
3682.0
3703.0
3734.0
3679.0
3731.0
3723.0
3703.0
3723.0
3683.0
3743.0
3775.0
3711.0
3759.0
3718.0
3775.0
3755.0
3739.0
3703.0
3707.0
3679.0
3730.0
3671.0
3710.0
3727.0
3667.0
3687.0
3655.0
3690.0
3683.0
3666.0
3683.0
3651.0
3711.0
3694.0
3691.0
3631.0
3659.0
3642.0
3603.0
3587.0
3567.0
3570.0
3554.0
3543.0
3603.0
3590.0
3546.0
3571.0
3590.0
3543.0
3574.0
3539.0
3506.0
3494.0
3499.0
3527.0
3455.0
3446.0
3479.0
3414.0
3414.0
3415.0
3366.0
3390.0
3350.0
3343.0
3354.0
3343.0
3335.0
3359.0
3383.0
3359.0
3330.0
3331.0
3307.0
3267.0
3308.0
3288.0
3263.0
3263.0
3243.0
3235.0
3175.0
3171.0
3202.0
3187.0
3167.0
3175.0
3111.0
3103.0
3138.0
3135.0
3067.0
3071.0
3108.0
3086.0
3035.0
3046.0
3011.0
2947.0
2974.0
2975.0
2946.0
2943.0
2958.0
2910.0
2942.0
2855.0
2906.0
2867.0
2831.0
2828.0
2899.0
2795.0
2866.0
2834.0
2743.0
2743.0
2722.0
2751.0
2699.0
2686.0
2663.0
2711.0
2699.0
2682.0
2699.0
2618.0
2682.0
2634.0
2595.0
2623.0
2590.0
2591.0
2634.0
2607.0
2555.0
2551.0
2543.0
2491.0
2486.0
2515.0
2495.0
2478.0
2519.0
2487.0
2487.0
2458.0
2474.0
2495.0
2490.0
2519.0
2442.0
2503.0
2463.0
2495.0
2471.0
2423.0
2403.0
2463.0
2431.0
2403.0
2423.0
2447.0
2391.0
2465.0
2463.0
2406.0
2443.0
2467.0
2391.0
2403.0
2487.0
2391.0
2478.0
2430.0
2470.0
2430.0
2387.0
2463.0
2384.0
2434.0
2463.0
2463.0
2402.0
2407.0
2411.0
2450.0
2458.0
2499.0
2487.0
2503.0
2423.0
2447.0
2515.0
2479.0
2466.0
2419.0
2495.0
2467.0
2511.0
2486.0
2446.0
2451.0
2454.0
2499.0
2527.0
2531.0
2523.0
2495.0
2515.0
2583.0
2535.0
2535.0
2583.0
2579.0
2527.0
2530.0
2515.0
2559.0
2583.0
2555.0
2551.0
2587.0
2591.0
2622.0
2570.0
2646.0
2559.0
2626.0
2651.0
2623.0
2668.0
2648.0
2591.0
2583.0
2591.0
2658.0
2623.0
2606.0
2651.0
2591.0
2623.0
2634.0
2675.0
2615.0
2618.0
2634.0
2634.0
2695.0
2674.0
2707.0
2716.0
2635.0
2650.0
2699.0
2690.0
2646.0
2695.0
2670.0
2682.0
2643.0
2627.0
2670.0
2678.0
2703.0
2687.0
2683.0
2727.0
2707.0
2698.0
2722.0
2710.0
2662.0
2662.0
2671.0
2658.0
2651.0
2647.0
2707.0
2643.0
2618.0
2678.0
2619.0
2631.0
2710.0
2643.0
2687.0
2638.0
2728.0
2706.0
2695.0
2687.0
2638.0
2650.0
2654.0
2623.0
2614.0
2663.0
2603.0
2627.0
2625.0
2659.0
2583.0
2590.0
2671.0
2659.0
2606.0
2611.0
2614.0
2675.0
2642.0
2603.0
2623.0
2611.0
2587.0
2623.0
2650.0
2633.0
2611.0
2573.0
2631.0
2623.0
2555.0
2614.0
2563.0
2627.0
2563.0
2575.0
2594.0
2646.0
2591.0
2635.0
2566.0
2559.0
2575.0
2582.0
2551.0
2555.0
2559.0
2598.0
2587.0
2562.0
2523.0
2526.0
2547.0
2543.0
2599.0
2599.0
2602.0
2607.0
2551.0
2527.0
2579.0
2554.0
2595.0
2531.0
2538.0
2567.0
2532.0
2526.0
2483.0
2487.0
2490.0
2503.0
2480.0
2483.0
2527.0
2539.0
2543.0
2491.0
2567.0
2535.0
2480.0
2542.0
2527.0
2523.0
2522.0
2455.0
2538.0
2483.0
2471.0
2478.0
2458.0
2451.0
2503.0
2510.0
2519.0
2474.0
2458.0
2447.0
2430.0
2442.0
2438.0
2438.0
2423.0
2407.0
2419.0
2395.0
2439.0
2474.0
2462.0
2386.0
2383.0
2391.0
2395.0
2402.0
2439.0
2427.0
2415.0
2382.0
2423.0
2471.0
2423.0
2427.0
2442.0
2422.0
2395.0
2420.0
2363.0
2333.0
2343.0
2399.0
2336.0
2362.0
2403.0
2386.0
2398.0
2323.0
2374.0
2343.0
2355.0
2395.0
2347.0
2350.0
2379.0
2331.0
2363.0
2291.0
2302.0
2323.0
2279.0
2310.0
2270.0
2271.0
2342.0
2347.0
2275.0
2303.0
2287.0
2298.0
2287.0
2259.0
2355.0
2335.0
2274.0
2291.0
2254.0
2263.0
2288.0
2255.0
2263.0
2235.0
2295.0
2270.0
2267.0
2320.0
2315.0
2283.0
2299.0
2310.0
2251.0
2251.0
2282.0
2267.0
2291.0
2251.0
2318.0
2319.0
2231.0
2276.0
2319.0
2319.0
2263.0
2271.0
2324.0
2338.0
2321.0
2311.0
2395.0
2366.0
2402.0
2419.0
2431.0
2419.0
2379.0
2394.0
2426.0
2479.0
2430.0
2458.0
2487.0
2463.0
2482.0
2571.0
2594.0
2610.0
2571.0
2618.0
2643.0
2634.0
2675.0
2675.0
2703.0
2783.0
2734.0
2759.0
2783.0
2805.0
2855.0
2835.0
2843.0
2882.0
2883.0
2947.0
2942.0
3006.0
3023.0
3070.0
3119.0
3152.0
3153.0
3131.0
3119.0
3183.0
3222.0
3239.0
3263.0
3243.0
3283.0
3258.0
3331.0
3306.0
3319.0
3335.0
3343.0
3407.0
3435.0
3483.0
3507.0
3474.0
3527.0
3486.0
3535.0
3506.0
3539.0
3591.0
3547.0
3575.0
3610.0
3592.0
3586.0
3567.0
3610.0
3603.0
3678.0
3670.0
3711.0
3710.0
3707.0
3671.0
3704.0
3747.0
3760.0
3694.0
3727.0
3730.0
3691.0
3723.0
3674.0
3743.0
3697.0
3698.0
3706.0
3775.0
3751.0
3739.0
3747.0
3723.0
3739.0
3743.0
3755.0
3695.0
3727.0
3695.0
3747.0
3711.0
3722.0
3671.0
3687.0
3695.0
3670.0
3703.0
3719.0
3643.0
3646.0
3651.0
3675.0
3619.0
3695.0
3627.0
3622.0
3603.0
3626.0
3615.0
3623.0
3583.0
3603.0
3599.0
3586.0
3502.0
3519.0
3515.0
3503.0
3491.0
3483.0
3522.0
3482.0
3527.0
3491.0
3491.0
3463.0
3451.0
3439.0
3459.0
3379.0
3395.0
3403.0
3379.0
3323.0
3342.0
3318.0
3294.0
3343.0
3315.0
3338.0
3255.0
3258.0
3279.0
3303.0
3295.0
3275.0
3283.0
3247.0
3238.0
3186.0
3159.0
3155.0
3175.0
3147.0
3099.0
3095.0
3103.0
3075.0
3027.0
3051.0
3027.0
3066.0
3015.0
3006.0
2990.0
2985.0
2943.0
2943.0
2939.0
2903.0
2954.0
2899.0
2923.0
2867.0
2839.0
2879.0
2830.0
2842.0
2807.0
2791.0
2794.0
2779.0
2754.0
2811.0
2807.0
2746.0
2779.0
2719.0
2691.0
2708.0
2678.0
2662.0
2667.0
2683.0
2599.0
2631.0
2618.0
2598.0
2574.0
2595.0
2551.0
2548.0
2587.0
2539.0
2590.0
2559.0
2495.0
2499.0
2559.0
2534.0
2531.0
2530.0
2514.0
2506.0
2486.0
2498.0
2415.0
2459.0
2474.0
2459.0
2458.0
2411.0
2427.0
2403.0
2434.0
2386.0
2442.0
2459.0
2394.0
2406.0
2383.0
2387.0
2350.0
2419.0
2379.0
2371.0
2391.0
2391.0
2350.0
2335.0
2419.0
2415.0
2359.0
2366.0
2399.0
2423.0
2415.0
2371.0
2422.0
2395.0
2351.0
2355.0
2423.0
2378.0
2351.0
2358.0
2359.0
2383.0
2367.0
2378.0
2458.0
2427.0
2427.0
2399.0
2403.0
2391.0
2412.0
2422.0
2470.0
2459.0
2435.0
2414.0
2426.0
2411.0
2439.0
2422.0
2442.0
2482.0
2435.0
2510.0
2515.0
2467.0
2506.0
2535.0
2474.0
2479.0
2475.0
2503.0
2507.0
2506.0
2490.0
2543.0
2528.0
2518.0
2483.0
2562.0
2514.0
2539.0
2551.0
2507.0
2550.0
2543.0
2571.0
2619.0
2607.0
2623.0
2618.0
2587.0
2590.0
2551.0
2579.0
2632.0
2583.0
2590.0
2550.0
2603.0
2615.0
2611.0
2590.0
2568.0
2587.0
2634.0
2594.0
2583.0
2615.0
2664.0
2638.0
2592.0
2671.0
2651.0
2583.0
2647.0
2611.0
2591.0
2582.0
2647.0
2655.0
2651.0
2575.0
2650.0
2627.0
2592.0
2610.0
2643.0
2626.0
2627.0
2631.0
2627.0
2615.0
2606.0
2583.0
2567.0
2631.0
2643.0
2630.0
2619.0
2598.0
2563.0
2638.0
2611.0
2594.0
2590.0
2603.0
2652.0
2571.0
2623.0
2611.0
2599.0
2582.0
2599.0
2550.0
2547.0
2558.0
2603.0
2535.0
2542.0
2519.0
2590.0
2571.0
2592.0
2574.0
2603.0
2563.0
2555.0
2530.0
2519.0
2547.0
2579.0
2567.0
2576.0
2555.0
2566.0
2543.0
2487.0
2531.0
2487.0
2519.0
2503.0
2499.0
2487.0
2526.0
2510.0
2506.0
2479.0
2555.0
2514.0
2474.0
2451.0
2447.0
2510.0
2510.0
2439.0
2502.0
2419.0
2435.0
2455.0
2431.0
2443.0
2487.0
2427.0
2427.0
2415.0
2474.0
2483.0
2451.0
2483.0
2411.0
2411.0
2391.0
2439.0
2383.0
2406.0
2382.0
2392.0
2403.0
2355.0
2382.0
2355.0
2350.0
2395.0
2367.0
2422.0
2423.0
2431.0
2403.0
2347.0
2351.0
2346.0
2387.0
2318.0
2334.0
2343.0
2362.0
2342.0
2378.0
2343.0
2311.0
2338.0
2339.0
2343.0
2315.0
2314.0
2363.0
2358.0
2331.0
2367.0
2283.0
2335.0
2359.0
2315.0
2274.0
2343.0
2303.0
2255.0
2292.0
2283.0
2238.0
2255.0
2255.0
2250.0
2263.0
2261.0
2286.0
2331.0
2263.0
2314.0
2254.0
2303.0
2272.0
2287.0
2284.0
2210.0
2194.0
2263.0
2231.0
2182.0
2246.0
2178.0
2179.0
2207.0
2203.0
2202.0
2183.0
2251.0
2248.0
2183.0
2226.0
2163.0
2150.0
2206.0
2172.0
2138.0
2195.0
2206.0
2135.0
2164.0
2126.0
2179.0
2183.0
2131.0
2195.0
2170.0
2151.0
2143.0
2123.0
2194.0
2130.0
2135.0
2179.0
2162.0
2182.0
2095.0
2146.0
2110.0
2175.0
2123.0
2183.0
2179.0
2143.0
2131.0
2188.0
2182.0
2147.0
2186.0
2151.0
2211.0
2171.0
2143.0
2135.0
2146.0
2159.0
2183.0
2219.0
2203.0
2243.0
2202.0
2234.0
2251.0
2270.0
2242.0
2274.0
2307.0
2315.0
2375.0
2327.0
2334.0
2403.0
2375.0
2439.0
2399.0
2443.0
2474.0
2435.0
2495.0
2531.0
2503.0
2574.0
2603.0
2622.0
2594.0
2675.0
2686.0
2695.0
2723.0
2755.0
2743.0
2742.0
2779.0
2807.0
2811.0
2883.0
2878.0
2894.0
2955.0
2955.0
2999.0
2990.0
3015.0
3003.0
3063.0
3059.0
3079.0
3123.0
3171.0
3143.0
3163.0
3227.0
3211.0
3279.0
3235.0
3246.0
3275.0
3299.0
3283.0
3326.0
3390.0
3391.0
3414.0
3367.0
3419.0
3487.0
3470.0
