2539.0
2579.0
2607.0
2583.0
2595.0
2595.0
2627.0
2615.0
2635.0
2607.0
2627.0
2651.0
2602.0
2599.0
2623.0
2594.0
2567.0
2587.0
2639.0
2591.0
2623.0
2602.0
2616.0
2654.0
2654.0
2666.0
2662.0
2675.0
2695.0
2679.0
2671.0
2679.0
2702.0
2643.0
2639.0
2667.0
2647.0
2659.0
2675.0
2675.0
2659.0
2675.0
2651.0
2663.0
2678.0
2731.0
2702.0
2747.0
2683.0
2742.0
2699.0
2694.0
2694.0
2671.0
2721.0
2703.0
2658.0
2674.0
2699.0
2674.0
2711.0
2662.0
2675.0
2707.0
2691.0
2699.0
2726.0
2715.0
2707.0
2728.0
2755.0
2723.0
2691.0
2711.0
2723.0
2699.0
2687.0
2695.0
2682.0
2651.0
2663.0
2683.0
2655.0
2719.0
2675.0
2715.0
2703.0
2695.0
2718.0
2703.0
2722.0
2723.0
2690.0
2702.0
2699.0
2658.0
2630.0
2666.0
2627.0
2602.0
2663.0
2655.0
2651.0
2674.0
2654.0
2642.0
2658.0
2643.0
2659.0
2699.0
2639.0
2686.0
2615.0
2635.0
2643.0
2603.0
2603.0
2599.0
2623.0
2555.0
2586.0
2615.0
2639.0
2603.0
2614.0
2643.0
2614.0
2631.0
2627.0
2619.0
2609.0
2599.0
2570.0
2571.0
2562.0
2543.0
2554.0
2590.0
2582.0
2527.0
2563.0
2575.0
2530.0
2570.0
2567.0
2534.0
2575.0
2599.0
2603.0
2590.0
2563.0
2573.0
2535.0
2558.0
2491.0
2551.0
2507.0
2459.0
2471.0
2495.0
2511.0
2503.0
2467.0
2503.0
2492.0
2494.0
2514.0
2505.0
2527.0
2483.0
2511.0
2515.0
2482.0
2482.0
2479.0
2455.0
2439.0
2451.0
2422.0
2455.0
2447.0
2475.0
2430.0
2479.0
2439.0
2443.0
2491.0
2467.0
2467.0
2495.0
2433.0
2443.0
2431.0
2427.0
2430.0
2407.0
2439.0
2383.0
2435.0
2391.0
2387.0
2434.0
2394.0
2450.0
2399.0
2459.0
2411.0
2455.0
2426.0
2419.0
2447.0
2410.0
2431.0
2423.0
2367.0
2390.0
2359.0
2414.0
2371.0
2366.0
2347.0
2363.0
2394.0
2370.0
2414.0
2394.0
2422.0
2434.0
2398.0
2410.0
2411.0
2391.0
2403.0
2394.0
2342.0
2327.0
2343.0
2326.0
2351.0
2323.0
2315.0
2324.0
2371.0
2406.0
2367.0
2410.0
2390.0
2400.0
2370.0
2397.0
2366.0
2342.0
2395.0
2323.0
2339.0
2351.0
2343.0
2334.0
2314.0
2334.0
2338.0
2314.0
2327.0
2319.0
2395.0
2391.0
2407.0
2395.0
2371.0
2354.0
2362.0
2363.0
2391.0
2323.0
2350.0
2298.0
2351.0
2318.0
2287.0
2283.0
2326.0
2294.0
2310.0
2354.0
2334.0
2371.0
2339.0
2322.0
2376.0
2351.0
2334.0
2319.0
2346.0
2339.0
2311.0
2318.0
2274.0
2278.0
2310.0
2326.0
2303.0
2303.0
2358.0
2279.0
2335.0
2323.0
2331.0
2351.0
2335.0
2302.0
2343.0
2303.0
2343.0
2342.0
2267.0
2276.0
2271.0
2255.0
2299.0
2235.0
2291.0
2278.0
2274.0
2323.0
2295.0
2287.0
2347.0
2366.0
2371.0
2310.0
2315.0
2319.0
2299.0
2295.0
2305.0
2283.0
2318.0
2270.0
2314.0
2335.0
2323.0
2294.0
2362.0
2338.0
2387.0
2407.0
2418.0
2431.0
2415.0
2414.0
2427.0
2410.0
2463.0
2447.0
2447.0
2450.0
2475.0
2463.0
2467.0
2502.0
2491.0
2542.0
2551.0
2627.0
2639.0
2655.0
2690.0
2671.0
2746.0
2707.0
2751.0
2755.0
2759.0
2747.0
2771.0
2767.0
2786.0
2838.0
2806.0
2842.0
2903.0
2899.0
2935.0
2951.0
2983.0
2999.0
3003.0
3047.0
3059.0
3054.0
3055.0
3051.0
3099.0
3070.0
3078.0
3114.0
3106.0
3118.0
3155.0
3147.0
3151.0
3179.0
3203.0
3239.0
3263.0
3223.0
3235.0
3294.0
3267.0
3298.0
3322.0
3295.0
3282.0
3286.0
3291.0
3287.0
3246.0
3271.0
3275.0
3315.0
3299.0
3307.0
3306.0
3335.0
3303.0
3343.0
3314.0
3398.0
3359.0
3390.0
3338.0
3358.0
3330.0
3367.0
3335.0
3351.0
3362.0
3319.0
3323.0
3290.0
3314.0
3307.0
3346.0
3346.0
3347.0
3359.0
3375.0
3343.0
3371.0
3315.0
3323.0
3291.0
3283.0
3315.0
3283.0
3295.0
3231.0
3270.0
3266.0
3239.0
3243.0
3238.0
3234.0
3295.0
3251.0
3227.0
3255.0
3287.0
3299.0
3244.0
3266.0
3206.0
3235.0
3242.0
3222.0
3199.0
3139.0
3158.0
3159.0
3131.0
3111.0
3121.0
3122.0
3119.0
3127.0
3147.0
3162.0
3139.0
3098.0
3100.0
3106.0
3123.0
3059.0
3066.0
3006.0
2999.0
2991.0
3018.0
3019.0
2987.0
2990.0
2995.0
2975.0
3019.0
2990.0
2982.0
2991.0
2979.0
3002.0
3002.0
2971.0
2935.0
2915.0
2947.0
2891.0
2875.0
2883.0
2887.0
2831.0
2854.0
2895.0
2855.0
2838.0
2831.0
2863.0
2879.0
2874.0
2878.0
2878.0
2827.0
2815.0
2802.0
2783.0
2795.0
2773.0
2758.0
2782.0
2742.0
2747.0
2727.0
2735.0
2726.0
2734.0
2727.0
2726.0
2715.0
2795.0
2755.0
2707.0
2766.0
2698.0
2719.0
2675.0
2671.0
2647.0
2682.0
2638.0
2642.0
2615.0
2603.0
2631.0
2598.0
2630.0
2603.0
2635.0
2615.0
2651.0
2622.0
2619.0
2590.0
2611.0
2550.0
2607.0
2578.0
2535.0
2539.0
2539.0
2555.0
2539.0
2514.0
2514.0
2555.0
2507.0
2515.0
2551.0
2555.0
2512.0
2526.0
2538.0
2527.0
2542.0
2519.0
2542.0
2511.0
2498.0
2510.0
2479.0
2498.0
2507.0
2507.0
2494.0
2515.0
2495.0
2475.0
2515.0
2547.0
2499.0
2515.0
2523.0
2486.0
2488.0
2479.0
2523.0
2527.0
2503.0
2515.0
2483.0
2479.0
2459.0
2467.0
2507.0
2498.0
2510.0
2523.0
2547.0
2510.0
2567.0
2514.0
2574.0
2559.0
2551.0
2547.0
2551.0
2542.0
2510.0
2555.0
2523.0
2543.0
2495.0
2558.0
2538.0
2535.0
2543.0
2567.0
2610.0
2615.0
2615.0
2607.0
2579.0
2591.0
2603.0
2586.0
2608.0
2579.0
2547.0
2539.0
2571.0
2543.0
2599.0
2567.0
2595.0
2575.0
2615.0
2587.0
2623.0
2643.0
2630.0
2623.0
2608.0
2622.0
2619.0
2647.0
2651.0
2647.0
2623.0
2631.0
2615.0
2599.0
2578.0
2615.0
2593.0
2626.0
2623.0
2659.0
2675.0
2626.0
2663.0
2694.0
2662.0
2694.0
2695.0
2663.0
2674.0
2627.0
2619.0
2631.0
2638.0
2630.0
2611.0
2599.0
2591.0
2643.0
2623.0
2639.0
2663.0
2687.0
2655.0
2663.0
2662.0
2655.0
2683.0
2630.0
2643.0
2607.0
2594.0
2647.0
2626.0
2559.0
2625.0
2583.0
2579.0
2606.0
2635.0
2635.0
2655.0
2654.0
2614.0
2659.0
2655.0
2651.0
2603.0
2610.0
2631.0
2611.0
2567.0
2578.0
2542.0
2575.0
2570.0
2568.0
2547.0
2598.0
2618.0
2618.0
2599.0
2587.0
2618.0
2638.0
2574.0
2575.0
2570.0
2566.0
2555.0
2587.0
2568.0
2530.0
2515.0
2510.0
2559.0
2527.0
2519.0
2503.0
2559.0
2570.0
2531.0
2550.0
2571.0
2571.0
2606.0
2534.0
2535.0
2570.0
2555.0
2538.0
2479.0
2499.0
2450.0
2506.0
2459.0
2451.0
2471.0
2503.0
2478.0
2480.0
2515.0
2526.0
2527.0
2539.0
2499.0
2515.0
2494.0
2491.0
2483.0
2466.0
2435.0
2422.0
2415.0
2446.0
2459.0
2407.0
2467.0
2459.0
2427.0
2474.0
2467.0
2475.0
2490.0
2495.0
2474.0
2430.0
2475.0
2422.0
2406.0
2403.0
2434.0
2419.0
2390.0
2416.0
2403.0
2387.0
2414.0
2422.0
2410.0
2411.0
2387.0
2391.0
2434.0
2454.0
2434.0
2387.0
2423.0
2398.0
2366.0
2419.0
2378.0
2323.0
2383.0
2367.0
2355.0
2359.0
2347.0
2374.0
2398.0
2403.0
2375.0
2355.0
2415.0
2430.0
2403.0
2355.0
2354.0
2339.0
2371.0
2318.0
2375.0
2366.0
2315.0
2331.0
2351.0
2310.0
2363.0
2334.0
2319.0
2327.0
2387.0
2343.0
2367.0
2338.0
2331.0
2351.0
2318.0
2327.0
2355.0
2327.0
2311.0
2271.0
2327.0
2295.0
2282.0
2282.0
2323.0
2311.0
2314.0
2299.0
2335.0
2339.0
2379.0
2347.0
2382.0
2330.0
2347.0
2306.0
2327.0
2346.0
2323.0
2270.0
2306.0
2259.0
2307.0
2306.0
2283.0
2330.0
2339.0
2327.0
2323.0
2347.0
2335.0
2303.0
2303.0
2360.0
2287.0
2346.0
2335.0
2323.0
2271.0
2279.0
2299.0
2298.0
2255.0
2239.0
2331.0
2306.0
2347.0
2350.0
2282.0
2298.0
2307.0
2342.0
2306.0
2322.0
2347.0
2282.0
2338.0
2295.0
2311.0
2286.0
2291.0
2250.0
2279.0
2250.0
2303.0
2283.0
2270.0
2288.0
2307.0
2323.0
2295.0
2303.0
2347.0
2331.0
2307.0
2288.0
2315.0
2255.0
2246.0
2235.0
2299.0
2287.0
2254.0
2243.0
2244.0
2246.0
2299.0
2315.0
2326.0
2311.0
2346.0
2327.0
2346.0
2335.0
2330.0
2278.0
2299.0
2302.0
2275.0
2275.0
2334.0
2266.0
2323.0
2291.0
2343.0
2371.0
2383.0
2422.0
2391.0
2383.0
2455.0
2423.0
2431.0
2475.0
2495.0
2495.0
2471.0
2467.0
2487.0
2499.0
2539.0
2535.0
2582.0
2559.0
2587.0
2663.0
2679.0
2659.0
2751.0
2731.0
2779.0
2790.0
2783.0
2842.0
2859.0
2843.0
2826.0
2875.0
2843.0
2907.0
2927.0
2946.0
2894.0
3002.0
2975.0
3002.0
3015.0
3040.0
3047.0
3099.0
3123.0
3159.0
3182.0
3170.0
3183.0
3174.0
3159.0
3155.0
3191.0
3166.0
3219.0
3231.0
3230.0
3199.0
3255.0
3246.0
3295.0
3295.0
3287.0
3327.0
3315.0
3383.0
3358.0
3318.0
3351.0
3347.0
3387.0
3331.0
3327.0
3343.0
3348.0
3343.0
3350.0
3358.0
3411.0
3359.0
3403.0
3355.0
3363.0
3399.0
3399.0
3427.0
3419.0
3430.0
3407.0
3415.0
3399.0
3383.0
3378.0
3391.0
3343.0
3351.0
3383.0
3343.0
3347.0
3399.0
3367.0
3367.0
3383.0
3379.0
3367.0
3388.0
3367.0
3358.0
3351.0
3359.0
3335.0
3303.0
3297.0
3315.0
3287.0
3295.0
3258.0
3311.0
3326.0
3303.0
3303.0
3275.0
3307.0
3303.0
3299.0
3298.0
3294.0
3262.0
3267.0
3267.0
3226.0
3223.0
3195.0
3203.0
3199.0
3183.0
3171.0
3178.0
3187.0
3171.0
3187.0
3195.0
3195.0
3159.0
3179.0
3163.0
3135.0
3139.0
3091.0
3091.0
3098.0
3099.0
3091.0
3051.0
3067.0
3015.0
3038.0
3014.0
3051.0
3034.0
3062.0
2999.0
3030.0
2995.0
3002.0
3010.0
3026.0
3023.0
3014.0
2947.0
2939.0
2971.0
2931.0
2935.0
2910.0
2931.0
2898.0
2923.0
2871.0
2915.0
2887.0
2906.0
2919.0
2914.0
2895.0
2923.0
2895.0
2902.0
2839.0
2827.0
2836.0
2799.0
2791.0
2808.0
2806.0
2775.0
2766.0
2731.0
2731.0
2814.0
2763.0
2811.0
2786.0
2743.0
2758.0
2786.0
2751.0
2727.0
2698.0
2759.0
2751.0
2699.0
2679.0
2658.0
2663.0
2679.0
2679.0
2675.0
2674.0
2662.0
2683.0
2695.0
2687.0
2663.0
2687.0
2679.0
2634.0
2606.0
2663.0
2607.0
2611.0
2598.0
2566.0
2559.0
2547.0
2559.0
2543.0
2586.0
2579.0
2542.0
2566.0
2590.0
2599.0
2583.0
2586.0
2626.0
2574.0
2602.0
2555.0
2562.0
2570.0
2543.0
2534.0
2523.0
2562.0
2515.0
2515.0
2514.0
2515.0
2559.0
2547.0
2563.0
2575.0
2567.0
2615.0
2599.0
2563.0
2590.0
2578.0
2534.0
2586.0
2551.0
2531.0
2535.0
2563.0
2546.0
2516.0
2546.0
2574.0
2554.0
2551.0
2579.0
2615.0
2579.0
2587.0
2587.0
2634.0
2571.0
2599.0
2598.0
2570.0
2607.0
2583.0
2539.0
2595.0
2575.0
2558.0
2551.0
2575.0
2603.0
2587.0
2606.0
2658.0
2631.0
2662.0
2607.0
2663.0
2675.0
2667.0
2614.0
2622.0
2651.0
2595.0
2631.0
2662.0
2627.0
2646.0
2618.0
2635.0
2639.0
2647.0
2659.0
2659.0
2706.0
2655.0
2658.0
2656.0
2676.0
2699.0
2662.0
2647.0
2639.0
2667.0
2618.0
2671.0
2619.0
2670.0
2667.0
2659.0
2687.0
2639.0
2687.0
2667.0
2667.0
2679.0
2710.0
2667.0
2687.0
2675.0
2639.0
2655.0
2627.0
2622.0
2654.0
2643.0
2647.0
2630.0
2635.0
2618.0
2678.0
2675.0
2659.0
2679.0
2679.0
2659.0
2654.0
2654.0
2675.0
2691.0
2667.0
2663.0
2663.0
2599.0
2591.0
2619.0
2582.0
2591.0
2627.0
2639.0
2611.0
2655.0
2659.0
2628.0
2675.0
2678.0
2691.0
2662.0
2615.0
2643.0
2619.0
2575.0
2583.0
2618.0
2566.0
2547.0
2595.0
2598.0
2587.0
2551.0
2555.0
2582.0
2559.0
2595.0
2594.0
2575.0
2551.0
2602.0
2559.0
2607.0
2594.0
2571.0
2535.0
2535.0
2527.0
2550.0
2515.0
2515.0
2518.0
2507.0
2543.0
2527.0
2563.0
2559.0
2523.0
2515.0
2531.0
2583.0
2543.0
2499.0
2527.0
2515.0
2466.0
2467.0
2499.0
2447.0
2503.0
2459.0
2502.0
2479.0
2499.0
2502.0
2467.0
2511.0
2490.0
2479.0
2499.0
2462.0
2447.0
2495.0
2486.0
2451.0
2443.0
2413.0
2407.0
2398.0
2406.0
2395.0
2394.0
2459.0
2440.0
2474.0
2471.0
2463.0
2427.0
2442.0
2426.0
2442.0
2431.0
2411.0
2382.0
2450.0
2403.0
2403.0
2359.0
2394.0
2395.0
2370.0
2366.0
2383.0
2383.0
2427.0
2376.0
2375.0
2390.0
2394.0
2418.0
2399.0
2418.0
2366.0
2363.0
2363.0
2387.0
2387.0
2359.0
2322.0
2323.0
2326.0
2330.0
2311.0
2359.0
2383.0
2354.0
2371.0
2343.0
2379.0
2422.0
2363.0
2383.0
2375.0
2359.0
2335.0
2374.0
2323.0
2315.0
2338.0
2323.0
2283.0
2347.0
2294.0
2355.0
2343.0
2383.0
2330.0
2335.0
2378.0
2371.0
2370.0
2347.0
2314.0
2311.0
2339.0
2290.0
2283.0
2279.0
2279.0
2263.0
2306.0
2258.0
2291.0
2318.0
2295.0
2334.0
2332.0
2358.0
2351.0
2359.0
2308.0
2302.0
2338.0
2326.0
2315.0
2268.0
2283.0
2283.0
2279.0
2319.0
2311.0
2270.0
2262.0
2291.0
2275.0
2323.0
2354.0
2339.0
2355.0
2338.0
2315.0
2350.0
2287.0
2282.0
2323.0
2259.0
2258.0
2247.0
2251.0
2279.0
2262.0
2266.0
2239.0
2266.0
2290.0
2303.0
2343.0
2363.0
2335.0
2334.0
2311.0
2327.0
2274.0
2322.0
2322.0
2307.0
2286.0
2303.0
2303.0
2243.0
2282.0
2251.0
2275.0
2286.0
2315.0
2315.0
2318.0
2327.0
2331.0
2319.0
2286.0
2298.0
2298.0
2290.0
2295.0
2243.0
2246.0
2246.0
2291.0
2235.0
2290.0
2275.0
2279.0
2274.0
2274.0
2287.0
2291.0
2331.0
2343.0
2295.0
2271.0
2287.0
2283.0
2243.0
2306.0
2307.0
2239.0
2297.0
2282.0
2291.0
2278.0
2255.0
2267.0
2286.0
2311.0
2298.0
2327.0
2382.0
2354.0
2334.0
2338.0
2371.0
2367.0
2383.0
2354.0
2387.0
2375.0
2359.0
2411.0
2382.0
2416.0
2442.0
2463.0
2499.0
2503.0
2506.0
2543.0
2603.0
2599.0
2591.0
2606.0
2639.0
2651.0
2706.0
2642.0
2699.0
2667.0
2739.0
2743.0
2775.0
2751.0
2795.0
2811.0
2827.0
2886.0
2887.0
2966.0
2930.0
2984.0
2999.0
2983.0
3050.0
3031.0
3015.0
3043.0
3055.0
3054.0
3059.0
3079.0
3114.0
3111.0
3130.0
3175.0
3179.0
3199.0
3219.0
3239.0
3271.0
3243.0
3319.0
3290.0
3306.0
3279.0
3287.0
3311.0
3287.0
3279.0
3306.0
3274.0
3311.0
3323.0
3351.0
3355.0
3366.0
3366.0
3415.0
3398.0
3383.0
3411.0
3427.0
3383.0
3394.0
3382.0
3375.0
3375.0
3379.0
3339.0
3367.0
3410.0
3399.0
3391.0
3358.0
3399.0
3374.0
3411.0
3387.0
3395.0
3387.0
3387.0
3446.0
3395.0
3386.0
3430.0
3355.0
3367.0
3363.0
3311.0
3343.0
3351.0
3359.0
3327.0
3311.0
3318.0
3344.0
3358.0
3387.0
3319.0
3314.0
3355.0
3335.0
3314.0
3295.0
3307.0
3274.0
3247.0
3274.0
3255.0
3239.0
3263.0
3254.0
3251.0
3231.0
3227.0
3242.0
3231.0
3231.0
3219.0
3222.0
3219.0
3227.0
3203.0
3183.0
3203.0
3126.0
3127.0
3126.0
3092.0
3086.0
3111.0
3098.0
3075.0
3094.0
3099.0
3050.0
3090.0
3079.0
3103.0
3063.0
3091.0
3111.0
3070.0
3027.0
3031.0
3015.0
2999.0
2955.0
2955.0
2975.0
2963.0
2907.0
2976.0
2920.0
2947.0
2971.0
2931.0
2967.0
2923.0
2971.0
2963.0
2951.0
2890.0
2879.0
2895.0
2863.0
2863.0
2814.0
2835.0
2803.0
2839.0
2826.0
2803.0
2795.0
2807.0
2786.0
2779.0
2811.0
2831.0
2807.0
2782.0
2807.0
2795.0
2779.0
2758.0
2723.0
2711.0
2762.0
2702.0
2679.0
2714.0
2694.0
2726.0
2706.0
2667.0
2667.0
2667.0
2723.0
2691.0
2719.0
2719.0
2703.0
2702.0
2667.0
2679.0
2635.0
2619.0
2647.0
2592.0
2606.0
2619.0
2595.0
2587.0
2578.0
2631.0
2598.0
2622.0
2619.0
2599.0
2606.0
2574.0
2627.0
2587.0
2607.0
2606.0
2567.0
2583.0
2519.0
2566.0
2515.0
2554.0
2571.0
2533.0
2563.0
2563.0
2546.0
2563.0
2567.0
2583.0
2571.0
2567.0
2606.0
2562.0
2571.0
2550.0
2535.0
2555.0
2531.0
2563.0
2506.0
2570.0
2547.0
2563.0
2531.0
2566.0
2588.0
2598.0
2559.0
2555.0
2582.0
2586.0
2602.0
2591.0
2579.0
2583.0
2590.0
2551.0
2575.0
2559.0
2551.0
2559.0
2578.0
2551.0
2594.0
2595.0
2566.0
2623.0
2631.0
2610.0
2627.0
2623.0
2623.0
2666.0
2635.0
2599.0
2607.0
2606.0
2639.0
2651.0
2607.0
2591.0
2618.0
2598.0
2603.0
2602.0
2630.0
2687.0
2695.0
2691.0
2710.0
2646.0
2687.0
2711.0
2666.0
2687.0
2646.0
2670.0
2635.0
2627.0
2651.0
2647.0
2658.0
2651.0
2674.0
2691.0
2639.0
2687.0
2687.0
2719.0
2727.0
2679.0
2674.0
2707.0
2671.0
2695.0
2684.0
2643.0
2694.0
2666.0
2639.0
2651.0
2682.0
2627.0
2650.0
2651.0
2671.0
2694.0
2718.0
2670.0
2671.0
2686.0
2698.0
2686.0
2691.0
2643.0
2690.0
2627.0
2627.0
2663.0
2618.0
2634.0
2651.0
2655.0
2656.0
2642.0
2682.0
2647.0
2650.0
2634.0
2643.0
2647.0
2638.0
2635.0
2615.0
2663.0
2607.0
2639.0
2651.0
2578.0
2638.0
2606.0
2587.0
2611.0
2582.0
2602.0
2622.0
2647.0
2595.0
2606.0
2658.0
2634.0
2619.0
2646.0
2606.0
2623.0
2599.0
2595.0
2539.0
2518.0
2531.0
2567.0
2551.0
2559.0
2567.0
2547.0
2555.0
2563.0
2547.0
2599.0
2571.0
2543.0
2579.0
2538.0
2583.0
2547.0
2522.0
2530.0
2479.0
2523.0
2483.0
2483.0
2510.0
2534.0
2478.0
2535.0
2527.0
2527.0
2551.0
2539.0
2523.0
2526.0
2527.0
2543.0
2538.0
2459.0
2467.0
2475.0
2455.0
2426.0
2479.0
2470.0
2407.0
2487.0
2426.0
2467.0
2468.0
2475.0
2522.0
2514.0
2486.0
2479.0
2447.0
2495.0
2475.0
2415.0
2414.0
2411.0
2435.0
2395.0
2430.0
2398.0
2382.0
2422.0
2391.0
