2706.0
2687.0
2699.0
2687.0
2663.0
2679.0
2691.0
2671.0
2686.0
2683.0
2698.0
2679.0
2647.0
2675.0
2659.0
2675.0
2671.0
2699.0
2667.0
2639.0
2674.0
2634.0
2679.0
2663.0
2654.0
2667.0
2650.0
2623.0
2682.0
2630.0
2655.0
2654.0
2679.0
2659.0
2631.0
2647.0
2622.0
2631.0
2606.0
2643.0
2611.0
2607.0
2603.0
2622.0
2631.0
2631.0
2627.0
2616.0
2590.0
2602.0
2607.0
2623.0
2603.0
2603.0
2595.0
2607.0
2607.0
2579.0
2563.0
2594.0
2603.0
2571.0
2551.0
2571.0
2571.0
2579.0
2555.0
2554.0
2590.0
2575.0
2563.0
2575.0
2539.0
2598.0
2559.0
2538.0
2542.0
2550.0
2546.0
2523.0
2539.0
2554.0
2555.0
2550.0
2523.0
2555.0
2522.0
2555.0
2518.0
2534.0
2519.0
2511.0
2531.0
2531.0
2528.0
2514.0
2498.0
2499.0
2515.0
2518.0
2495.0
2499.0
2495.0
2526.0
2511.0
2506.0
2474.0
2499.0
2486.0
2502.0
2491.0
2503.0
2491.0
2506.0
2512.0
2491.0
2463.0
2487.0
2507.0
2487.0
2458.0
2494.0
2446.0
2471.0
2447.0
2451.0
2463.0
2458.0
2478.0
2442.0
2462.0
2455.0
2447.0
2462.0
2463.0
2474.0
2446.0
2455.0
2459.0
2478.0
2455.0
2427.0
2475.0
2442.0
2430.0
2448.0
2438.0
2435.0
2442.0
2419.0
2458.0
2427.0
2403.0
2451.0
2427.0
2455.0
2418.0
2410.0
2395.0
2427.0
2414.0
2402.0
2398.0
2438.0
2418.0
2423.0
2387.0
2422.0
2407.0
2399.0
2407.0
2398.0
2431.0
2419.0
2418.0
2426.0
2398.0
2427.0
2399.0
2428.0
2403.0
2387.0
2383.0
2422.0
2395.0
2406.0
2394.0
2395.0
2383.0
2398.0
2399.0
2403.0
2387.0
2387.0
2390.0
2416.0
2386.0
2407.0
2383.0
2387.0
2391.0
2387.0
2379.0
2387.0
2411.0
2419.0
2423.0
2411.0
2395.0
2379.0
2395.0
2387.0
2399.0
2395.0
2406.0
2426.0
2429.0
2387.0
2410.0
2411.0
2402.0
2402.0
2383.0
2414.0
2403.0
2395.0
2407.0
2403.0
2434.0
2397.0
2366.0
2395.0
2419.0
2395.0
2414.0
2399.0
2407.0
2403.0
2410.0
2407.0
2431.0
2383.0
2394.0
2395.0
2402.0
2406.0
2386.0
2374.0
2379.0
2387.0
2379.0
2398.0
2378.0
2407.0
2415.0
2430.0
2395.0
2383.0
2419.0
2402.0
2386.0
2407.0
2375.0
2399.0
2403.0
2395.0
2391.0
2399.0
2379.0
2399.0
2386.0
2416.0
2422.0
2399.0
2391.0
2427.0
2406.0
2410.0
2439.0
2399.0
2390.0
2383.0
2391.0
2398.0
2399.0
2387.0
2394.0
2383.0
2426.0
2423.0
2407.0
2407.0
2371.0
2391.0
2382.0
2419.0
2391.0
2419.0
2407.0
2407.0
2418.0
2378.0
2403.0
2419.0
2410.0
2375.0
2398.0
2415.0
2412.0
2371.0
2439.0
2403.0
2414.0
2399.0
2379.0
2391.0
2415.0
2399.0
2398.0
2403.0
2424.0
2415.0
2387.0
2403.0
2391.0
2419.0
2411.0
2399.0
2403.0
2415.0
2435.0
2391.0
2407.0
2431.0
2403.0
2406.0
2430.0
2411.0
2411.0
2383.0
2394.0
2411.0
2395.0
2426.0
2438.0
2426.0
2414.0
2403.0
2446.0
2383.0
2427.0
2426.0
2402.0
2410.0
2439.0
2383.0
2403.0
2418.0
2410.0
2378.0
2387.0
2414.0
2419.0
2431.0
2371.0
2408.0
2382.0
2407.0
2379.0
2391.0
2435.0
2430.0
2415.0
2419.0
2390.0
2410.0
2388.0
2403.0
2415.0
2387.0
2403.0
2415.0
2427.0
2411.0
2383.0
2391.0
2423.0
2375.0
2391.0
2423.0
2394.0
2410.0
2427.0
2410.0
2406.0
2403.0
2426.0
2395.0
2387.0
2431.0
2415.0
2426.0
2399.0
2398.0
2394.0
2375.0
2379.0
2391.0
2411.0
2395.0
2375.0
2407.0
2407.0
2374.0
2403.0
2379.0
2386.0
2379.0
2426.0
2383.0
2394.0
2391.0
2394.0
2403.0
2427.0
2378.0
2411.0
2411.0
2383.0
2419.0
2431.0
2407.0
2415.0
2400.0
2383.0
2399.0
2383.0
2386.0
2391.0
2395.0
2403.0
2414.0
2411.0
2387.0
2411.0
2403.0
2386.0
2431.0
2419.0
2443.0
2402.0
2423.0
2427.0
2442.0
2483.0
2463.0
2428.0
2430.0
2451.0
2440.0
2467.0
2455.0
2498.0
2487.0
2507.0
2535.0
2501.0
2506.0
2535.0
2574.0
2526.0
2583.0
2562.0
2578.0
2619.0
2591.0
2619.0
2611.0
2615.0
2671.0
2643.0
2671.0
2639.0
2675.0
2699.0
2711.0
2710.0
2718.0
2750.0
2782.0
2754.0
2771.0
2811.0
2803.0
2811.0
2831.0
2823.0
2851.0
2847.0
2871.0
2902.0
2898.0
2899.0
2935.0
2946.0
2946.0
2955.0
2963.0
2959.0
2974.0
3010.0
2998.0
3019.0
3011.0
3051.0
3038.0
3047.0
3071.0
3067.0
3087.0
3079.0
3099.0
3079.0
3135.0
3119.0
3131.0
3131.0
3146.0
3126.0
3147.0
3143.0
3135.0
3178.0
3160.0
3191.0
3206.0
3151.0
3183.0
3207.0
3195.0
3206.0
3214.0
3211.0
3203.0
3215.0
3206.0
3231.0
3203.0
3219.0
3203.0
3207.0
3223.0
3247.0
3242.0
3239.0
3207.0
3262.0
3199.0
3227.0
3259.0
3255.0
3230.0
3243.0
3223.0
3227.0
3227.0
3218.0
3251.0
3247.0
3246.0
3227.0
3239.0
3247.0
3243.0
3234.0
3219.0
3251.0
3207.0
3243.0
3216.0
3250.0
3215.0
3231.0
3195.0
3211.0
3191.0
3187.0
3198.0
3219.0
3171.0
3215.0
3179.0
3183.0
3155.0
3195.0
3166.0
3167.0
3179.0
3159.0
3154.0
3179.0
3170.0
3135.0
3167.0
3143.0
3126.0
3123.0
3154.0
3123.0
3115.0
3154.0
3107.0
3127.0
3123.0
3119.0
3123.0
3123.0
3079.0
3087.0
3098.0
3068.0
3098.0
3094.0
3067.0
3039.0
3083.0
3043.0
3062.0
3059.0
3034.0
3047.0
3059.0
3070.0
2995.0
3023.0
3034.0
3027.0
3007.0
3014.0
3019.0
2999.0
3027.0
2999.0
3015.0
3015.0
2971.0
3006.0
2983.0
2992.0
3015.0
2974.0
2983.0
2979.0
2962.0
2947.0
2979.0
2959.0
2927.0
2979.0
2959.0
2950.0
2927.0
2935.0
2947.0
2975.0
2922.0
2939.0
2950.0
2919.0
2931.0
2935.0
2955.0
2951.0
2911.0
2939.0
2935.0
2919.0
2919.0
2922.0
2899.0
2898.0
2886.0
2911.0
2883.0
2907.0
2883.0
2883.0
2918.0
2878.0
2895.0
2874.0
2871.0
2891.0
2855.0
2878.0
2879.0
2854.0
2831.0
2883.0
2862.0
2843.0
2858.0
2866.0
2811.0
2859.0
2855.0
2843.0
2822.0
2839.0
2826.0
2803.0
2839.0
2834.0
2798.0
2798.0
2827.0
2806.0
2795.0
2798.0
2798.0
2803.0
2794.0
2787.0
2794.0
2791.0
2786.0
2795.0
2767.0
2775.0
2755.0
2783.0
2787.0
2778.0
2787.0
2751.0
2767.0
2739.0
2759.0
2755.0
2743.0
2767.0
2751.0
2747.0
2731.0
2763.0
2723.0
2727.0
2722.0
2756.0
2731.0
2720.0
2726.0
2743.0
2698.0
2710.0
2751.0
2708.0
2695.0
2691.0
2687.0
2715.0
2699.0
2699.0
2702.0
2691.0
2710.0
2693.0
2706.0
2702.0
2723.0
2679.0
2666.0
2678.0
2718.0
2694.0
2731.0
2691.0
2699.0
2675.0
2707.0
2694.0
2690.0
2702.0
2686.0
2695.0
2683.0
2683.0
2679.0
2663.0
2671.0
2675.0
2671.0
2663.0
2666.0
2694.0
2671.0
2671.0
2683.0
2675.0
2674.0
2719.0
2691.0
2666.0
2679.0
2667.0
2671.0
2710.0
2703.0
2695.0
2694.0
2710.0
2690.0
2696.0
2687.0
2702.0
2719.0
2682.0
2702.0
2707.0
2695.0
2706.0
2703.0
2714.0
2695.0
2695.0
2687.0
2685.0
2667.0
2710.0
2670.0
2711.0
2706.0
2707.0
2699.0
2714.0
2695.0
2702.0
2671.0
2675.0
2683.0
2691.0
2667.0
2694.0
2711.0
2691.0
2695.0
2700.0
2711.0
2719.0
2670.0
2667.0
2698.0
2691.0
2690.0
2715.0
2699.0
2690.0
2675.0
2699.0
2678.0
2694.0
2690.0
2678.0
2667.0
2675.0
2683.0
2667.0
2651.0
2650.0
2678.0
2683.0
2666.0
2666.0
2670.0
2659.0
2663.0
2666.0
2646.0
2642.0
2626.0
2683.0
2647.0
2642.0
2663.0
2631.0
2619.0
2622.0
2659.0
2654.0
2662.0
2639.0
2643.0
2610.0
2595.0
2646.0
2648.0
2639.0
2619.0
2634.0
2607.0
2599.0
2618.0
2637.0
2595.0
2634.0
2586.0
2587.0
2618.0
2591.0
2623.0
2610.0
2615.0
2579.0
2563.0
2598.0
2602.0
2559.0
2579.0
2583.0
2586.0
2558.0
2559.0
2575.0
2550.0
2558.0
2574.0
2566.0
2582.0
2571.0
2575.0
2566.0
2538.0
2559.0
2560.0
2595.0
2539.0
2543.0
2543.0
2559.0
2526.0
2535.0
2539.0
2535.0
2526.0
2535.0
2530.0
2539.0
2550.0
2522.0
2519.0
2512.0
2531.0
2511.0
2554.0
2510.0
2503.0
2530.0
2523.0
2527.0
2519.0
2523.0
2535.0
2503.0
2527.0
2507.0
2513.0
2515.0
2511.0
2527.0
2511.0
2487.0
2499.0
2495.0
2503.0
2503.0
2519.0
2503.0
2494.0
2507.0
2506.0
2507.0
2503.0
2511.0
2499.0
2478.0
2478.0
2458.0
2447.0
2455.0
2463.0
2491.0
2451.0
2447.0
2452.0
2440.0
2490.0
2470.0
2455.0
2455.0
2487.0
2471.0
2470.0
2483.0
2443.0
2439.0
2439.0
2435.0
2439.0
2435.0
2470.0
2447.0
2419.0
2451.0
2435.0
2447.0
2443.0
2415.0
2419.0
2410.0
2418.0
2459.0
2443.0
2435.0
2400.0
2434.0
2431.0
2423.0
2439.0
2402.0
2438.0
2426.0
2411.0
2423.0
2411.0
2411.0
2407.0
2390.0
2387.0
2419.0
2394.0
2399.0
2402.0
2378.0
2410.0
2419.0
2395.0
2383.0
2379.0
2414.0
2395.0
2395.0
2398.0
2382.0
2407.0
2375.0
2370.0
2386.0
2399.0
2386.0
2386.0
2403.0
2379.0
2379.0
2395.0
2383.0
2399.0
2383.0
2379.0
2403.0
2378.0
2387.0
2366.0
2367.0
2378.0
2374.0
2367.0
2375.0
2383.0
2350.0
2360.0
2350.0
2366.0
2359.0
2370.0
2386.0
2383.0
2382.0
2387.0
2367.0
2391.0
2379.0
2387.0
2338.0
2380.0
2366.0
2354.0
2335.0
2347.0
2351.0
2374.0
2366.0
2367.0
2362.0
2383.0
2342.0
2379.0
2356.0
2378.0
2406.0
2335.0
2363.0
2355.0
2367.0
2359.0
2382.0
2359.0
2350.0
2342.0
2362.0
2358.0
2359.0
2371.0
2347.0
2375.0
2346.0
2351.0
2380.0
2371.0
2347.0
2366.0
2363.0
2371.0
2367.0
2362.0
2371.0
2367.0
2379.0
2351.0
2351.0
2367.0
2354.0
2363.0
2383.0
2371.0
2375.0
2378.0
2395.0
2359.0
2391.0
2370.0
2351.0
2351.0
2383.0
2387.0
2388.0
2366.0
2351.0
2354.0
2371.0
2366.0
2351.0
2370.0
2354.0
2383.0
2363.0
2359.0
2348.0
2348.0
2374.0
2395.0
2371.0
2370.0
2347.0
2366.0
2386.0
2374.0
2338.0
2375.0
2354.0
2359.0
2358.0
2399.0
2359.0
2351.0
2370.0
2375.0
2382.0
2375.0
2350.0
2407.0
2335.0
2386.0
2383.0
2347.0
2374.0
2371.0
2378.0
2339.0
2366.0
2383.0
2362.0
2343.0
2382.0
2350.0
2346.0
2359.0
2358.0
2370.0
2346.0
2374.0
2335.0
2367.0
2351.0
2383.0
2354.0
2355.0
2363.0
2395.0
2370.0
2371.0
2346.0
2343.0
2402.0
2383.0
2363.0
2346.0
2375.0
2370.0
2407.0
2322.0
2326.0
2342.0
2351.0
2371.0
2363.0
2327.0
2359.0
2322.0
2350.0
2379.0
2375.0
2383.0
2331.0
2395.0
2347.0
2363.0
2355.0
2353.0
2347.0
2387.0
2382.0
2347.0
2359.0
2382.0
2362.0
2355.0
2343.0
2343.0
2351.0
2334.0
2339.0
2354.0
2354.0
2343.0
2363.0
2359.0
2362.0
2390.0
2335.0
2383.0
2346.0
2371.0
2335.0
2375.0
2343.0
2327.0
2363.0
2338.0
2363.0
2343.0
2334.0
2359.0
2339.0
2347.0
2350.0
2343.0
2367.0
2327.0
2346.0
2346.0
2347.0
2314.0
2334.0
2343.0
2343.0
2346.0
2346.0
2319.0
2383.0
2342.0
2362.0
2323.0
2386.0
2335.0
2358.0
2339.0
2355.0
2378.0
2371.0
2354.0
2370.0
2375.0
2418.0
2410.0
2398.0
2410.0
2399.0
2423.0
2447.0
2442.0
2423.0
2435.0
2447.0
2454.0
2475.0
2499.0
2506.0
2495.0
2495.0
2551.0
2562.0
2555.0
2574.0
2571.0
2594.0
2595.0
2578.0
2603.0
2615.0
2646.0
2642.0
2663.0
2694.0
2686.0
2734.0
2719.0
2747.0
2718.0
2722.0
2775.0
2730.0
2806.0
2779.0
2802.0
2839.0
2822.0
2854.0
2831.0
2895.0
2875.0
2879.0
2879.0
2915.0
2918.0
2923.0
2918.0
2958.0
2931.0
2999.0
2970.0
3002.0
2998.0
3014.0
3047.0
3007.0
3026.0
3015.0
3051.0
3030.0
3063.0
3090.0
3059.0
3099.0
3091.0
3114.0
3107.0
3143.0
3122.0
3119.0
3138.0
3146.0
3139.0
3111.0
3147.0
3163.0
3131.0
3171.0
3159.0
3143.0
3186.0
3178.0
3186.0
3203.0
3227.0
3179.0
3179.0
3182.0
3200.0
3243.0
3191.0
3176.0
3211.0
3219.0
3222.0
3227.0
3210.0
3223.0
3211.0
3219.0
3179.0
3218.0
3211.0
3210.0
3235.0
3195.0
3195.0
3227.0
3223.0
3194.0
3207.0
3199.0
3207.0
3183.0
3174.0
3174.0
3191.0
3187.0
3155.0
3186.0
3159.0
3206.0
3163.0
3162.0
3170.0
3126.0
3147.0
3163.0
3154.0
3166.0
3166.0
3156.0
3131.0
3155.0
3138.0
3134.0
3126.0
3115.0
3131.0
3131.0
3121.0
3115.0
3083.0
3104.0
3107.0
3119.0
3107.0
3090.0
3114.0
3119.0
3110.0
3066.0
3062.0
3070.0
3071.0
3078.0
3071.0
3047.0
3039.0
3079.0
3038.0
3035.0
3031.0
3046.0
3047.0
3031.0
3039.0
3027.0
3019.0
3035.0
3006.0
2999.0
3003.0
2999.0
3015.0
2991.0
2978.0
3011.0
3003.0
2982.0
2995.0
2986.0
3002.0
3000.0
2991.0
2975.0
2987.0
2971.0
2971.0
2959.0
2946.0
2983.0
2958.0
2975.0
2923.0
2942.0
2923.0
2970.0
2938.0
2959.0
2911.0
2923.0
2938.0
2915.0
2959.0
2935.0
2938.0
2943.0
2935.0
2927.0
2899.0
2919.0
2915.0
2918.0
2911.0
2910.0
2895.0
2911.0
2891.0
2903.0
2894.0
2919.0
2899.0
2915.0
2875.0
2851.0
2907.0
2914.0
2888.0
2854.0
2867.0
2879.0
2867.0
2899.0
2859.0
2867.0
2874.0
2862.0
2835.0
2815.0
2823.0
2823.0
2835.0
2827.0
2831.0
2810.0
2807.0
2822.0
2826.0
2802.0
2831.0
2827.0
2787.0
2803.0
2822.0
2798.0
2810.0
2763.0
2760.0
2802.0
2787.0
2794.0
2743.0
2778.0
2779.0
2779.0
2739.0
2783.0
2738.0
2746.0
2770.0
2727.0
2751.0
2739.0
2750.0
2743.0
2734.0
2715.0
2722.0
2734.0
2747.0
2755.0
2758.0
2730.0
2719.0
2715.0
2703.0
2711.0
2723.0
2703.0
2707.0
2723.0
2719.0
2719.0
2719.0
2711.0
2727.0
2719.0
2711.0
2723.0
2675.0
2674.0
2714.0
2727.0
2710.0
2707.0
2687.0
2690.0
2695.0
2683.0
2699.0
2710.0
2674.0
2703.0
2675.0
2715.0
2687.0
2666.0
2654.0
2698.0
2683.0
2694.0
2686.0
2691.0
2690.0
2663.0
2703.0
2687.0
2679.0
2718.0
2687.0
2703.0
2695.0
2695.0
2663.0
2679.0
2679.0
2695.0
2687.0
2698.0
2694.0
2679.0
2695.0
2686.0
2667.0
2695.0
2687.0
2679.0
2703.0
2691.0
2707.0
2710.0
2663.0
2695.0
2672.0
2670.0
2691.0
2655.0
2670.0
2678.0
2647.0
2662.0
2703.0
2691.0
2663.0
2672.0
2662.0
2691.0
2663.0
2667.0
2659.0
2675.0
2663.0
2659.0
2651.0
2667.0
2719.0
2662.0
2667.0
2666.0
2644.0
2678.0
2671.0
2647.0
2686.0
2674.0
2659.0
2655.0
2663.0
2643.0
2670.0
2630.0
2638.0
2650.0
2659.0
2651.0
2675.0
2639.0
2619.0
2646.0
2651.0
2651.0
2638.0
2635.0
2642.0
2663.0
2635.0
2655.0
2647.0
2630.0
2659.0
2634.0
2652.0
2627.0
2655.0
2654.0
2643.0
2615.0
2653.0
2655.0
2623.0
2647.0
2627.0
2627.0
2630.0
2635.0
2659.0
2635.0
2659.0
2631.0
2608.0
2598.0
2626.0
2627.0
2616.0
2602.0
2591.0
2607.0
2591.0
2606.0
2610.0
2610.0
2583.0
2615.0
2638.0
2611.0
2591.0
2615.0
2598.0
2603.0
2607.0
2598.0
2563.0
2555.0
2567.0
2603.0
2587.0
2558.0
2595.0
2586.0
2543.0
2579.0
2587.0
2582.0
2559.0
2555.0
2547.0
2591.0
2556.0
2542.0
2551.0
2578.0
2551.0
2563.0
2542.0
2523.0
2543.0
2558.0
2539.0
2540.0
2555.0
2547.0
2551.0
2539.0
2511.0
2531.0
2531.0
2519.0
2531.0
2539.0
2571.0
2511.0
2518.0
2510.0
2539.0
2527.0
2512.0
2532.0
2499.0
2506.0
2503.0
2519.0
2479.0
2471.0
2502.0
2503.0
2479.0
2518.0
2506.0
2494.0
2471.0
2491.0
2486.0
2518.0
2495.0
2494.0
2479.0
2463.0
2494.0
2490.0
2491.0
2451.0
2502.0
2494.0
2491.0
2443.0
2458.0
2491.0
2471.0
2498.0
2483.0
2431.0
2443.0
2495.0
2451.0
2475.0
2463.0
2425.0
2463.0
2451.0
2435.0
2483.0
2451.0
2447.0
2443.0
2442.0
2431.0
2438.0
2442.0
2434.0
2422.0
2435.0
2442.0
2431.0
2435.0
2439.0
2451.0
2415.0
2443.0
2403.0
2430.0
2382.0
2398.0
2411.0
2403.0
2431.0
2426.0
2422.0
2439.0
2423.0
2423.0
2415.0
2435.0
2399.0
2422.0
2402.0
2427.0
2423.0
2430.0
2411.0
2411.0
2423.0
2423.0
2391.0
2407.0
2406.0
2415.0
2419.0
2402.0
2391.0
2395.0
2383.0
2410.0
2399.0
2407.0
2384.0
2403.0
2394.0
2390.0
2391.0
2395.0
2385.0
2355.0
2355.0
2375.0
2395.0
2387.0
2391.0
2403.0
2375.0
2383.0
2394.0
2386.0
2371.0
2395.0
2363.0
2382.0
2374.0
2374.0
2358.0
2374.0
2362.0
2359.0
2387.0
2383.0
2371.0
2363.0
2375.0
2386.0
2379.0
2383.0
2371.0
2386.0
2367.0
2350.0
2343.0
2399.0
2367.0
2383.0
2371.0
2366.0
2359.0
2367.0
2367.0
2342.0
2363.0
2371.0
2375.0
2371.0
2346.0
2375.0
2339.0
2379.0
2371.0
2362.0
2375.0
2362.0
2391.0
2359.0
2375.0
2347.0
2361.0
2375.0
2370.0
2356.0
2379.0
2362.0
2398.0
2342.0
2355.0
2362.0
2356.0
2387.0
2342.0
2371.0
2343.0
2387.0
2362.0
2367.0
2346.0
2387.0
2366.0
2367.0
2351.0
2386.0
2331.0
2343.0
2363.0
2354.0
2359.0
2359.0
2387.0
2339.0
2367.0
2371.0
2359.0
2366.0
2367.0
2355.0
2351.0
2374.0
2406.0
2374.0
2367.0
2395.0
2379.0
2383.0
2367.0
2362.0
2362.0
2382.0
2383.0
2375.0
2372.0
2382.0
2335.0
2363.0
2350.0
2370.0
2334.0
2386.0
2386.0
2390.0
2367.0
2371.0
2335.0
2375.0
2378.0
2379.0
2355.0
2386.0
2367.0
2354.0
2363.0
2367.0
2359.0
2346.0
2334.0
2355.0
2371.0
2331.0
2363.0
2371.0
2339.0
2383.0
2347.0
2363.0
2387.0
2358.0
2366.0
2363.0
2366.0
2371.0
2355.0
2346.0
2335.0
2379.0
2343.0
2335.0
2374.0
2407.0
2359.0
2366.0
2375.0
2371.0
2359.0
2351.0
2390.0
2371.0
2391.0
2363.0
2391.0
2362.0
2378.0
2363.0
2323.0
2355.0
2355.0
2395.0
2362.0
2367.0
